cnt,pos,speed,DTorque,DAC,STorque,Force
1,-95.2941,0.0548,33,0,0,14
3,-95.2935,0.0639,33,0,0,14
5,-95.2933,0.0669,33,0,0,14
7,-95.2932,0.07,33,0,0,14
9,-95.2931,0.0639,33,0,0,14
11,-95.2929,0.0669,33,0,0,14
13,-95.2928,0.0669,33,0,0,14
15,-95.2927,0.0639,34,0,0,15
17,-95.2925,0.0761,33,0,0,14
19,-95.2924,0.07,33,0,0,14
21,-95.2922,0.0822,33,0,0,14
23,-95.2921,0.0791,33,0,0,14
25,-95.2919,0.0609,33,0,0,14
27,-95.2918,0.0669,34,0,0,15
29,-95.2917,0.073,34,0,0,15
31,-95.2916,0.0822,34,0,0,15
33,-95.2914,0.0852,34,0,0,15
35,-95.2912,0.0852,34,0,0,15
37,-95.291,0.0882,34,0,0,15
39,-95.2908,0.0822,34,0,0,15
41,-95.2907,0.0852,33,0,0,14
43,-95.2905,0.0791,33,0,0,14
45,-95.2903,0.0822,34,0,0,15
47,-95.2902,0.0791,34,0,0,15
49,-95.29,0.0791,34,0,0,15
51,-95.2898,0.0882,34,0,0,15
53,-95.2897,0.0882,34,0,0,15
55,-95.2895,0.0913,34,0,0,15
57,-95.2893,0.0943,34,0,0,15
59,-95.2891,0.0974,34,0,0,15
61,-95.2889,0.0943,34,0,0,15
63,-95.2887,0.1035,34,0,0,15
65,-95.2886,0.0943,34,0,0,15
67,-95.2882,0.1035,34,0,0,15
69,-95.288,0.1065,34,0,0,15
71,-95.2878,0.1065,34,0,0,15
73,-95.2876,0.1035,34,0,0,15
75,-95.2873,0.1095,34,0,0,15
77,-95.2871,0.1065,34,0,0,15
79,-95.287,0.1095,34,0,0,15
81,-95.2867,0.1126,34,0,0,15
83,-95.2865,0.1187,34,0,0,15
85,-95.2862,0.1187,34,0,0,15
87,-95.2859,0.1248,34,0,0,15
89,-95.2857,0.1278,34,0,0,15
91,-95.2854,0.1308,34,0,0,15
93,-95.2851,0.1278,34,0,0,15
95,-95.2849,0.1248,34,0,0,15
97,-95.2845,0.1308,34,0,0,15
99,-95.2843,0.1308,34,0,0,15
101,-95.284,0.1339,34,0,0,15
103,-95.2837,0.1369,34,0,0,15
105,-95.2831,0.1521,34,0,0,15
107,-95.2828,0.1552,34,0,0,15
109,-95.2825,0.1582,34,0,0,15
111,-95.282,0.1582,34,0,0,15
113,-95.2817,0.1552,34,0,0,15
115,-95.2814,0.1613,34,0,0,15
117,-95.2812,0.1643,34,0,0,15
119,-95.2809,0.1704,35,0,0,15
121,-95.2803,0.1917,34,0,0,15
123,-95.28,0.1887,35,0,0,15
125,-95.2798,0.1947,34,0,0,15
127,-95.2794,0.1947,34,0,0,15
129,-95.279,0.1887,34,0,0,15
131,-95.2786,0.1978,35,0,0,15
133,-95.2782,0.2069,35,0,0,15
135,-95.2778,0.213,35,0,0,15
137,-95.2774,0.2191,35,0,0,15
139,-95.2769,0.2191,35,0,0,15
141,-95.2765,0.2373,35,0,0,15
143,-95.276,0.2404,35,0,0,15
145,-95.2755,0.2404,35,0,0,15
147,-95.275,0.2465,35,0,0,15
149,-95.2745,0.2526,35,0,0,15
151,-95.274,0.2617,35,0,0,15
153,-95.2735,0.2708,35,0,0,15
155,-95.2729,0.2982,35,0,0,15
157,-95.2723,0.3134,35,0,0,15
159,-95.2717,0.3317,35,0,0,15
161,-95.2707,0.3317,35,0,0,15
163,-95.27,0.3378,35,0,0,15
165,-95.2693,0.3378,35,0,0,15
167,-95.269,0.3651,35,0,0,15
169,-95.2682,0.3712,35,0,0,15
171,-95.2671,0.3925,35,0,0,15
173,-95.2663,0.4199,35,0,0,15
175,-95.2658,0.426,35,0,0,15
177,-95.265,0.4625,35,0,0,15
179,-95.264,0.4625,35,0,0,15
181,-95.2631,0.4838,35,0,0,15
183,-95.2621,0.5112,35,0,0,15
185,-95.2611,0.5325,35,0,0,15
187,-95.2594,0.5416,35,0,0,15
189,-95.2583,0.566,34,0,0,15
191,-95.2566,0.5873,35,0,0,15
193,-95.2554,0.6329,35,0,0,15
195,-95.2541,0.6481,35,0,0,15
197,-95.2528,0.6877,34,0,0,15
199,-95.2507,0.6877,34,0,0,15
201,-95.2493,0.6907,35,0,0,15
203,-95.2479,0.7303,35,0,0,15
205,-95.2464,0.7638,34,0,0,15
207,-95.2449,0.782,34,0,0,15
209,-95.2433,0.779,34,0,0,15
211,-95.2417,0.8155,35,0,0,15
213,-95.2399,0.8916,34,0,0,15
215,-95.2381,0.922,34,0,0,15
217,-95.2362,0.9433,34,0,0,15
219,-95.2343,0.9463,34,0,0,15
221,-95.2324,0.9615,34,0,0,15
223,-95.2304,1.0163,34,0,0,15
225,-95.2294,1.0346,34,0,0,15
227,-95.2273,1.0589,34,0,0,15
229,-95.221,1.0863,34,0,0,15
231,-95.2177,1.1137,34,0,0,15
233,-95.2143,1.1715,34,0,0,15
235,-95.2096,1.1654,34,0,0,15
237,-95.2073,1.1806,34,0,0,15
239,-95.2048,1.2415,34,0,0,15
241,-95.2011,1.2354,34,0,0,15
243,-95.1974,1.275,34,0,0,15
245,-95.1936,1.2597,34,0,0,15
247,-95.1909,1.3693,34,0,0,15
249,-95.1868,1.418,34,0,0,15
251,-95.1825,1.418,34,0,0,15
253,-95.1796,1.5062,34,0,0,15
255,-95.175,1.5032,33,0,0,14
257,-95.172,1.5458,34,0,0,15
259,-95.1689,1.5762,33,0,0,14
261,-95.1657,1.6614,33,0,0,14
263,-95.1606,1.7162,33,0,0,14
265,-95.1572,1.7557,33,0,0,14
267,-95.1519,1.8257,33,0,0,14
269,-95.1482,1.8318,33,0,0,14
271,-95.1446,1.8714,33,0,0,14
273,-95.1388,1.9779,33,0,0,14
275,-95.1348,1.9992,33,0,0,14
277,-95.1307,2.0996,33,0,0,14
279,-95.1265,2.1087,33,0,0,14
281,-95.1223,2.1544,33,0,0,14
283,-95.1157,2.2882,33,0,0,14
285,-95.1111,2.3065,32,0,0,14
287,-95.1065,2.3765,32,0,0,14
289,-95.1018,2.3887,32,0,0,14
291,-95.097,2.3765,32,0,0,14
293,-95.0922,2.3947,32,0,0,14
295,-95.0872,2.5225,32,0,0,14
297,-95.0847,2.5104,32,0,0,14
299,-95.0796,2.6017,32,0,0,14
301,-95.0744,2.5834,32,0,0,14
303,-95.064,2.7142,31,0,0,13
305,-95.0586,2.6473,31,0,0,13
307,-95.0532,2.7142,31,0,0,13
309,-95.0479,2.6382,31,0,0,13
311,-95.0426,2.6321,31,0,0,13
313,-95.0371,2.7751,31,0,0,13
315,-95.0316,2.7934,31,0,0,13
317,-95.0261,2.7112,31,0,0,13
319,-95.0206,2.769,31,0,0,13
321,-95.015,2.8968,31,0,0,13
323,-95.0092,2.909,31,0,0,13
325,-95.0033,2.9607,31,0,0,13
327,-94.9974,2.9425,30,0,0,13
329,-94.9915,3.0064,30,0,0,13
331,-94.9853,3.0581,30,0,0,13
333,-94.976,3.1311,30,0,0,13
335,-94.9698,3.0916,30,0,0,13
337,-94.9635,3.1981,30,0,0,13
339,-94.9572,3.1159,29,0,0,13
341,-94.9509,3.0246,29,0,0,13
343,-94.9449,2.9638,30,0,0,13
345,-94.9389,3.0033,29,0,0,13
347,-94.9301,2.9425,30,0,0,13
349,-94.9244,2.7355,29,0,0,13
351,-94.9191,2.6473,30,0,0,13
353,-94.9137,2.5956,30,0,0,13
355,-94.9087,2.4799,30,0,0,13
357,-94.9038,2.4191,30,0,0,13
359,-94.8993,2.1848,30,0,0,13
361,-94.8951,2.0509,30,0,0,13
363,-94.8931,1.9718,30,0,0,13
365,-94.8892,1.8653,30,0,0,13
367,-94.8856,1.7588,30,0,0,13
369,-94.8823,1.6097,30,0,0,13
371,-94.8792,1.4393,30,0,0,13
373,-94.8764,1.2658,30,0,0,13
375,-94.8739,1.1593,30,0,0,13
377,-94.8717,1.0985,30,0,0,13
379,-94.8697,0.9159,30,0,0,13
381,-94.8671,0.8246,30,0,0,13
383,-94.8656,0.7181,30,0,0,13
385,-94.8643,0.6177,30,0,0,13
387,-94.8632,0.5051,30,0,0,13
389,-94.862,0.3651,30,0,0,13
391,-94.8614,0.2404,30,0,0,13
393,-94.8609,0.1765,31,0,0,13
395,-94.8606,0.1278,31,0,0,13
397,-94.8604,0.0943,31,0,0,13
399,-94.8601,0.073,31,0,0,13
401,-94.8601,0.0426,31,0,0,13
403,-94.86,0.0335,31,0,0,13
405,-94.8598,0.0487,31,0,0,13
407,-94.8597,0.0396,31,0,0,13
409,-94.8597,0.0456,31,0,0,13
411,-94.8596,0.0365,31,0,0,13
413,-94.8595,0.0304,31,0,0,13
415,-94.8594,0.0152,31,0,0,13
417,-94.8594,0.0335,31,0,0,13
419,-94.8593,0.0335,31,0,0,13
421,-94.8593,0.0335,31,0,0,13
423,-94.8592,0.0183,31,0,0,13
425,-94.8592,0.0061,31,0,0,13
427,-94.8592,0.0213,31,0,0,13
429,-94.8591,0.0274,31,0,0,13
431,-94.8591,0.0243,31,0,0,13
433,-94.859,0.0122,31,0,0,13
435,-94.859,0.0152,31,0,0,13
437,-94.8589,0.0183,30,0,0,13
439,-94.8589,0.0243,31,0,0,13
441,-94.8588,0.0274,31,0,0,13
443,-94.8588,0.0213,31,0,0,13
445,-94.8587,0.0243,31,0,0,13
447,-94.8587,0.0122,31,0,0,13
449,-94.8587,0.0183,31,0,0,13
451,-94.8587,0.0122,31,0,0,13
453,-94.8586,0.0183,31,0,0,13
455,-94.8586,0.0152,31,0,0,13
457,-94.8586,0.0122,31,0,0,13
459,-94.8586,0.0152,30,0,0,13
461,-94.8585,0,30,0,0,13
463,-94.8585,0.0183,31,0,0,13
465,-94.8585,0.0183,31,0,0,13
467,-94.8585,0.0183,31,0,0,13
469,-94.8584,0.0152,30,0,0,13
471,-94.8584,0.0122,31,0,0,13
473,-94.8584,0.0091,30,0,0,13
475,-94.8584,0.0091,31,0,0,13
477,-94.8583,0.0091,31,0,0,13
479,-94.8583,0.0152,30,0,0,13
481,-94.8583,0.0061,30,0,0,13
483,-94.8583,0.0061,30,0,0,13
485,-94.8582,0.0091,30,0,0,13
487,-94.8582,0.0122,31,0,0,13
489,-94.8582,0.0122,30,0,0,13
491,-94.8582,0.003,30,0,0,13
493,-94.8581,0,30,0,0,13
495,-94.8581,0.0091,30,0,0,13
497,-94.8581,0.0061,30,0,0,13
499,-94.8581,0.0091,30,0,0,13
501,-94.8581,0.0091,30,0,0,13
503,-94.8581,0,30,0,0,13
505,-94.8581,0.0091,30,0,0,13
507,-94.8581,0.0061,30,0,0,13
509,-94.858,0.0122,30,0,0,13
511,-94.858,0.0091,30,0,0,13
513,-94.858,0.0091,30,0,0,13
515,-94.858,0.0091,30,0,0,13
517,-94.858,-0.003,30,0,0,13
519,-94.858,0.0122,30,0,0,13
521,-94.858,0.0061,30,0,0,13
523,-94.8579,0.0122,30,0,0,13
525,-94.8579,0.003,30,0,0,13
527,-94.8579,0,30,0,0,13
529,-94.8579,0.0122,30,0,0,13
531,-94.8579,0.0091,30,0,0,13
533,-94.8579,-0.003,30,0,0,13
535,-94.8579,0.0061,30,0,0,13
537,-94.8579,0.003,30,0,0,13
539,-94.8579,0.0122,30,0,0,13
541,-94.8578,0.0061,30,0,0,13
543,-94.8578,0.0091,30,0,0,13
545,-94.8578,0.0061,30,0,0,13
547,-94.8578,0.003,30,0,0,13
549,-94.8578,0,30,0,0,13
551,-94.8578,0.0091,30,0,0,13
553,-94.8578,0.003,30,0,0,13
555,-94.8578,0.0061,30,0,0,13
557,-94.8578,0.0183,30,0,0,13
559,-94.8578,-0.003,30,0,0,13
561,-94.8578,0.0061,30,0,0,13
563,-94.8578,0.003,30,0,0,13
565,-94.8577,-0.0122,30,0,0,13
567,-94.8577,0.0091,30,0,0,13
569,-94.8577,0.0061,30,0,0,13
571,-94.8577,0.003,30,0,0,13
573,-94.8577,0.0061,30,0,0,13
575,-94.8577,0.003,30,0,0,13
577,-94.8577,0,30,0,0,13
579,-94.8577,0.0061,30,0,0,13
581,-94.8577,0.0091,30,0,0,13
583,-94.8577,-0.0061,30,0,0,13
585,-94.8577,0.0061,30,0,0,13
587,-94.8577,0,30,0,0,13
589,-94.8577,0,30,0,0,13
591,-94.8577,0,30,0,0,13
593,-94.8577,0.003,30,0,0,13
595,-94.8577,0,30,0,0,13
597,-94.8577,-0.0091,30,0,0,13
599,-94.8577,0,30,0,0,13
601,-94.8576,0.0091,30,0,0,13
603,-94.8576,0.003,30,0,0,13
605,-94.8576,0.0091,30,0,0,13
607,-94.8576,0,29,0,0,13
609,-94.8576,0.0091,30,0,0,13
611,-94.8576,0.0122,30,0,0,13
613,-94.8576,0.003,30,0,0,13
615,-94.8576,0,29,0,0,13
617,-94.8576,0.003,30,0,0,13
619,-94.8576,0,29,0,0,13
621,-94.8576,-0.003,30,0,0,13
623,-94.8576,0,30,0,0,13
625,-94.8576,0.003,29,0,0,13
627,-94.8576,0.003,30,0,0,13
629,-94.8576,0,29,0,0,13
631,-94.8576,0,29,0,0,13
633,-94.8576,0.003,29,0,0,13
635,-94.8576,0.003,29,0,0,13
637,-94.8576,-0.003,29,0,0,13
639,-94.8576,0.0091,29,0,0,13
641,-94.8576,0.0061,29,0,0,13
643,-94.8576,0,30,0,0,13
645,-94.8576,0.003,29,0,0,13
647,-94.8576,0.0091,29,0,0,13
649,-94.8576,0.003,29,0,0,13
651,-94.8576,0.003,29,0,0,13
653,-94.8576,0.003,29,0,0,13
655,-94.8576,-0.0061,29,0,0,13
657,-94.8576,-0.003,29,0,0,13
659,-94.8576,0.0061,30,0,0,13
661,-94.8576,-0.0122,29,0,0,13
663,-94.8576,0.0061,29,0,0,13
665,-94.8575,0.003,29,0,0,13
667,-94.8576,-0.0091,29,0,0,13
669,-94.8575,0.0152,29,0,0,13
671,-94.8575,0.003,29,0,0,13
673,-94.8575,0.003,29,0,0,13
675,-94.8575,-0.003,29,0,0,13
677,-94.8575,0.0091,29,0,0,13
679,-94.8575,-0.0122,29,0,0,13
681,-94.8575,0.0091,29,0,0,13
683,-94.8575,-0.003,29,0,0,13
685,-94.8575,-0.003,29,0,0,13
687,-94.8575,0.003,29,0,0,13
689,-94.8575,0.003,29,0,0,13
691,-94.8575,0,29,0,0,13
693,-94.8575,-0.0061,29,0,0,13
695,-94.8575,0,29,0,0,13
697,-94.8575,0.0091,29,0,0,13
699,-94.8575,0.003,29,0,0,13
701,-94.8575,0.003,29,0,0,13
703,-94.8575,-0.003,29,0,0,13
705,-94.8575,-0.0061,29,0,0,13
707,-94.8575,0.0061,29,0,0,13
709,-94.8575,0.003,29,0,0,13
711,-94.8575,0,29,0,0,13
713,-94.8575,-0.003,29,0,0,13
715,-94.8575,0.0061,29,0,0,13
717,-94.8575,0,29,0,0,13
719,-94.8575,-0.0061,29,0,0,13
721,-94.8575,-0.003,29,0,0,13
723,-94.8575,0.003,29,0,0,13
725,-94.8575,0.0061,29,0,0,13
727,-94.8575,-0.003,29,0,0,13
729,-94.8575,0.0122,29,0,0,13
731,-94.8575,0,29,0,0,13
733,-94.8575,-0.0061,29,0,0,13
735,-94.8575,0.0152,29,0,0,13
737,-94.8575,0.0152,29,0,0,13
739,-94.8575,-0.0061,29,0,0,13
741,-94.8575,0.003,29,0,0,13
743,-94.8575,0,29,0,0,13
745,-94.8575,0.003,29,0,0,13
747,-94.8575,0.0061,29,0,0,13
749,-94.8575,0,29,0,0,13
751,-94.8575,0.003,29,0,0,13
753,-94.8575,0.003,29,0,0,13
755,-94.8575,-0.0122,29,0,0,13
757,-94.8575,0.0061,29,0,0,13
759,-94.8575,0,29,0,0,13
761,-94.8575,0,29,0,0,13
763,-94.8575,0,29,0,0,13
765,-94.8575,-0.003,29,0,0,13
767,-94.8575,0.003,28,0,0,12
769,-94.8575,0.0061,29,0,0,13
771,-94.8575,-0.003,29,0,0,13
773,-94.8575,-0.0061,29,0,0,13
775,-94.8575,0.0061,29,0,0,13
777,-94.8575,-0.0061,29,0,0,13
779,-94.8575,0.003,29,0,0,13
781,-94.8575,0,29,0,0,13
783,-94.8575,-0.0061,29,0,0,13
785,-94.8575,-0.003,29,0,0,13
787,-94.8575,0.0122,28,0,0,12
789,-94.8575,-0.0091,28,0,0,12
791,-94.8575,-0.003,28,0,0,12
793,-94.8575,0.003,29,0,0,13
795,-94.8575,-0.003,28,0,0,12
797,-94.8575,-0.0061,28,0,0,12
799,-94.8575,0.003,28,0,0,12
801,-94.8575,0,28,0,0,12
803,-94.8575,0,29,0,0,13
805,-94.8575,-0.0061,28,0,0,12
807,-94.8575,-0.0122,28,0,0,12
809,-94.8575,0.0122,28,0,0,12
811,-94.8575,-0.0183,28,0,0,12
813,-94.8575,0.0152,29,0,0,13
815,-94.8574,0.0122,29,0,0,13
817,-94.8574,-0.0122,28,0,0,12
819,-94.8575,0.003,28,0,0,12
821,-94.8574,0.0091,28,0,0,12
823,-94.8574,-0.0122,28,0,0,12
825,-94.8575,-0.003,28,0,0,12
827,-94.8575,0.003,28,0,0,12
829,-94.8574,0.003,28,0,0,12
831,-94.8575,-0.0061,28,0,0,12
833,-94.8575,0.0122,28,0,0,12
835,-94.8574,-0.0061,28,0,0,12
837,-94.8575,0.0152,28,0,0,12
839,-94.8574,0.0061,28,0,0,12
841,-94.8574,-0.0061,28,0,0,12
843,-94.8575,0.003,28,0,0,12
845,-94.8574,0.0091,28,0,0,12
847,-94.8575,-0.0091,28,0,0,12
849,-94.8574,0.0091,28,0,0,12
851,-94.8574,-0.0091,28,0,0,12
853,-94.8575,-0.003,28,0,0,12
855,-94.8574,0.0061,28,0,0,12
857,-94.8575,-0.0091,28,0,0,12
859,-94.8575,0.0122,28,0,0,12
861,-94.8574,0.003,28,0,0,12
863,-94.8575,-0.0061,28,0,0,12
865,-94.8574,0,28,0,0,12
867,-94.8575,0.003,28,0,0,12
869,-94.8574,0.0061,28,0,0,12
871,-94.8574,0.003,28,0,0,12
873,-94.8574,-0.003,28,0,0,12
875,-94.8575,0,28,0,0,12
877,-94.8575,0.003,28,0,0,12
879,-94.8574,-0.0061,28,0,0,12
881,-94.8575,-0.003,28,0,0,12
883,-94.8575,0.0061,28,0,0,12
885,-94.8574,-0.0061,28,0,0,12
887,-94.8575,0.003,28,0,0,12
889,-94.8574,-0.003,28,0,0,12
891,-94.8575,0.0061,28,0,0,12
893,-94.8574,0.003,28,0,0,12
895,-94.8575,-0.0061,28,0,0,12
897,-94.8575,0.0061,28,0,0,12
899,-94.8574,0.003,28,0,0,12
901,-94.8574,0.003,28,0,0,12
903,-94.8574,0.0091,28,0,0,12
905,-94.8574,0,28,0,0,12
907,-94.8575,0.003,28,0,0,12
909,-94.8574,-0.003,28,0,0,12
911,-94.8575,-0.0091,28,0,0,12
913,-94.8574,0.0152,28,0,0,12
915,-94.8574,0.003,28,0,0,12
917,-94.8574,-0.0061,28,0,0,12
919,-94.8575,0.0061,28,0,0,12
921,-94.8574,-0.003,28,0,0,12
923,-94.8575,-0.0061,28,0,0,12
925,-94.8575,0,28,0,0,12
927,-94.8575,-0.003,28,0,0,12
929,-94.8575,0.003,28,0,0,12
931,-94.8574,0,28,0,0,12
933,-94.8575,-0.0091,28,0,0,12
935,-94.8575,0.0061,27,0,0,12
937,-94.8574,0.003,28,0,0,12
939,-94.8575,-0.0061,28,0,0,12
941,-94.8574,-0.0091,28,0,0,12
943,-94.8575,0.003,28,0,0,12
945,-94.8574,-0.0061,27,0,0,12
947,-94.8575,0.0061,27,0,0,12
949,-94.8574,0.0122,28,0,0,12
951,-94.8575,-0.0152,27,0,0,12
953,-94.8575,-0.003,27,0,0,12
955,-94.8575,0.0091,27,0,0,12
957,-94.8574,-0.003,27,0,0,12
959,-94.8575,-0.003,28,0,0,12
961,-94.8574,0.0152,28,0,0,12
963,-94.8574,-0.0061,27,0,0,12
965,-94.8575,0.0152,28,0,0,12
967,-94.8574,0.0122,27,0,0,12
969,-94.8574,0,27,0,0,12
971,-94.8575,-0.0122,27,0,0,12
973,-94.8575,0.0091,27,0,0,12
975,-94.8574,0.003,27,0,0,12
977,-94.8575,-0.003,27,0,0,12
979,-94.8575,0.0091,27,0,0,12
981,-94.8574,-0.003,27,0,0,12
983,-94.8575,-0.0122,27,0,0,12
985,-94.8574,0.0152,27,0,0,12
987,-94.8575,-0.0122,27,0,0,12
989,-94.8575,-0.0061,28,0,0,12
991,-94.8574,0.0122,27,0,0,12
993,-94.8575,-0.0061,27,0,0,12
995,-94.8575,0,27,0,0,12
997,-94.8575,0.0061,27,0,0,12
999,-94.8574,0.0061,27,0,0,12
1001,-94.8575,-0.0152,27,0,0,12
1003,-94.8575,0,27,0,0,12
1005,-94.8575,-0.003,27,0,0,12
1007,-94.8575,0.0122,27,0,0,12
1009,-94.8575,-0.0091,27,0,0,12
1011,-94.8575,0.003,27,0,0,12
1013,-94.8574,-0.0091,27,0,0,12
1015,-94.8575,0,27,0,0,12
1017,-94.8575,0.0122,27,0,0,12
1019,-94.8575,0.003,27,0,0,12
1021,-94.8575,-0.003,27,0,0,12
1023,-94.8575,0,27,0,0,12
1025,-94.8575,0,27,0,0,12
1027,-94.8575,0,27,0,0,12
1029,-94.8575,-0.0061,27,0,0,12
1031,-94.8575,0,27,0,0,12
1033,-94.8574,0.0122,27,0,0,12
1035,-94.8574,-0.0152,27,0,0,12
1037,-94.8575,0.0061,27,0,0,12
1039,-94.8575,0.003,27,0,0,12
1041,-94.8575,-0.003,27,0,0,12
1043,-94.8575,-0.003,27,0,0,12
1045,-94.8575,0.0061,27,0,0,12
1047,-94.8575,-0.003,27,0,0,12
1049,-94.8575,-0.0091,27,0,0,12
1051,-94.8575,0.0152,27,0,0,12
1053,-94.8575,0,27,0,0,12
1055,-94.8575,-0.0091,27,0,0,12
1057,-94.8575,0.0061,27,0,0,12
1059,-94.8574,0.0061,27,0,0,12
1061,-94.8575,-0.0122,27,0,0,12
1063,-94.8575,0,27,0,0,12
1065,-94.8575,0.0061,27,0,0,12
1067,-94.8575,-0.0091,27,0,0,12
1069,-94.8575,0.003,27,0,0,12
1071,-94.8575,0.0122,27,0,0,12
1073,-94.8575,-0.003,27,0,0,12
1075,-94.8575,0.003,27,0,0,12
1077,-94.8575,0,27,0,0,12
1079,-94.8575,-0.0061,27,0,0,12
1081,-94.8575,-0.003,27,0,0,12
1083,-94.8575,-0.0091,27,0,0,12
1085,-94.8575,-0.003,27,0,0,12
1087,-94.8575,0.0061,27,0,0,12
1089,-94.8575,0.0061,27,0,0,12
1091,-94.8575,-0.0061,27,0,0,12
1093,-94.8575,0.003,26,0,0,11
1095,-94.8575,0.0091,27,0,0,12
1097,-94.8575,-0.0061,27,0,0,12
1099,-94.8575,-0.003,27,0,0,12
1101,-94.8575,0.003,27,0,0,12
1103,-94.8575,0,27,0,0,12
1105,-94.8575,-0.0061,27,0,0,12
1107,-94.8575,0.0061,26,0,0,11
1109,-94.8575,0.003,27,0,0,12
1111,-94.8575,-0.0091,26,0,0,11
1113,-94.8575,-0.003,26,0,0,11
1115,-94.8575,0.0091,27,0,0,12
1117,-94.8575,0,26,0,0,11
1119,-94.8575,0.0061,26,0,0,11
1121,-94.8575,-0.003,27,0,0,12
1123,-94.8575,-0.0122,26,0,0,11
1125,-94.8575,0.0091,26,0,0,11
1127,-94.8575,0.0122,26,0,0,11
1129,-94.8575,-0.003,27,0,0,12
1131,-94.8575,0.0061,26,0,0,11
1133,-94.8575,0.0091,27,0,0,12
1135,-94.8575,-0.0091,27,0,0,12
1137,-94.8575,0,27,0,0,12
1139,-94.8575,-0.0091,26,0,0,11
1141,-94.8575,0.003,26,0,0,11
1143,-94.8575,-0.0061,26,0,0,11
1145,-94.8575,0.003,26,0,0,11
1147,-94.8575,0.003,26,0,0,11
1149,-94.8575,-0.0122,26,0,0,11
1151,-94.8575,0.0061,26,0,0,11
1153,-94.8575,0.0061,26,0,0,11
1155,-94.8575,-0.0152,26,0,0,11
1157,-94.8575,0.0183,26,0,0,11
1159,-94.8575,0.003,26,0,0,11
1161,-94.8575,-0.0152,26,0,0,11
1163,-94.8575,0.0061,26,0,0,11
1165,-94.8575,0,26,0,0,11
1167,-94.8575,0,26,0,0,11
1169,-94.8575,0.0091,26,0,0,11
1171,-94.8575,0.0091,26,0,0,11
1173,-94.8575,-0.0152,26,0,0,11
1175,-94.8575,0.003,26,0,0,11
1177,-94.8575,0.0091,26,0,0,11
1179,-94.8575,-0.0091,26,0,0,11
1181,-94.8575,0.003,26,0,0,11
1183,-94.8575,0.0091,26,0,0,11
1185,-94.8575,-0.0061,26,0,0,11
1187,-94.8575,-0.003,26,0,0,11
1189,-94.8575,-0.003,26,0,0,11
1191,-94.8575,0,26,0,0,11
1193,-94.8575,0.0091,26,0,0,11
1195,-94.8575,-0.0122,26,0,0,11
1197,-94.8575,-0.0061,26,0,0,11
1199,-94.8575,0.0061,26,0,0,11
1201,-94.8575,-0.0152,26,0,0,11
1203,-94.8575,0.003,26,0,0,11
1205,-94.8575,-0.0061,26,0,0,11
1207,-94.8575,-0.003,26,0,0,11
1209,-94.8575,-0.003,26,0,0,11
1211,-94.8575,-0.0061,26,0,0,11
1213,-94.8575,0.003,26,0,0,11
1215,-94.8575,0.003,26,0,0,11
1217,-94.8575,-0.0183,26,0,0,11
1219,-94.8575,0.0122,26,0,0,11
1221,-94.8575,-0.0122,26,0,0,11
1223,-94.8575,0,26,0,0,11
1225,-94.8575,0.0091,26,0,0,11
1227,-94.8575,-0.0091,26,0,0,11
1229,-94.8575,0.0091,26,0,0,11
1231,-94.8575,-0.003,26,0,0,11
1233,-94.8575,0.003,26,0,0,11
1235,-94.8575,-0.003,26,0,0,11
1237,-94.8575,-0.0091,26,0,0,11
1239,-94.8575,0.0061,26,0,0,11
1241,-94.8575,-0.003,26,0,0,11
1243,-94.8575,0.0122,26,0,0,11
1245,-94.8575,-0.0091,26,0,0,11
1247,-94.8575,0,26,0,0,11
1249,-94.8575,0,26,0,0,11
1251,-94.8575,-0.003,25,0,0,11
1253,-94.8575,0,25,0,0,11
1255,-94.8575,0,26,0,0,11
1257,-94.8575,-0.0061,26,0,0,11
1259,-94.8575,0.0122,26,0,0,11
1261,-94.8575,0,26,0,0,11
1263,-94.8575,0.0061,25,0,0,11
1265,-94.8575,0.003,26,0,0,11
1267,-94.8575,-0.0091,25,0,0,11
1269,-94.8575,-0.003,25,0,0,11
1271,-94.8575,0.0061,26,0,0,11
1273,-94.8575,-0.0061,25,0,0,11
1275,-94.8575,0.0091,25,0,0,11
1277,-94.8575,-0.0061,25,0,0,11
1279,-94.8575,-0.0122,25,0,0,11
1281,-94.8575,0.0091,25,0,0,11
1283,-94.8575,-0.0091,25,0,0,11
1285,-94.8575,0.0061,26,0,0,11
1287,-94.8575,0.0091,25,0,0,11
1289,-94.8575,-0.0091,25,0,0,11
1291,-94.8575,0.003,25,0,0,11
1293,-94.8575,-0.0061,25,0,0,11
1295,-94.8575,0.003,25,0,0,11
1297,-94.8575,0,25,0,0,11
1299,-94.8575,-0.003,25,0,0,11
1301,-94.8575,0.0091,25,0,0,11
1303,-94.8575,-0.0122,25,0,0,11
1305,-94.8575,0.0122,25,0,0,11
1307,-94.8575,0.003,25,0,0,11
1309,-94.8575,-0.0091,25,0,0,11
1311,-94.8575,0.0091,25,0,0,11
1313,-94.8575,0,25,0,0,11
1315,-94.8575,-0.003,25,0,0,11
1317,-94.8575,-0.003,25,0,0,11
1319,-94.8575,-0.003,25,0,0,11
1321,-94.8575,0,25,0,0,11
1323,-94.8575,0.0152,25,0,0,11
1325,-94.8575,0,25,0,0,11
1327,-94.8575,0.0061,25,0,0,11
1329,-94.8575,0,25,0,0,11
1331,-94.8575,-0.0061,25,0,0,11
1333,-94.8575,-0.0061,25,0,0,11
1335,-94.8575,-0.003,25,0,0,11
1337,-94.8575,0,25,0,0,11
1339,-94.8575,0,25,0,0,11
1341,-94.8575,0.003,25,0,0,11
1343,-94.8575,0.0061,25,0,0,11
1345,-94.8575,-0.0061,25,0,0,11
