cnt,pos,speed,DTorque,DAC,STorque,Force,Dir
1,197.895,-0.1035,-34,0,0,-5,0
2,197.899,-0.1035,-33,0,0,-5,0
3,197.9,-0.0669,-34,0,0,-5,0
4,197.901,-0.0974,-34,0,0,-5,0
5,197.902,-0.0974,-34,0,0,-5,0
6,197.904,-0.1095,-34,0,0,-5,0
7,197.905,-0.1248,-34,0,0,-5,0
8,197.907,-0.1035,-34,0,0,-5,0
9,197.909,-0.1126,-34,0,0,-5,0
10,197.911,-0.1065,-34,0,0,-5,0
11,197.912,-0.1095,-34,0,0,-5,0
12,197.914,-0.1126,-34,0,0,-5,0
13,197.916,-0.1308,-34,0,0,-5,0
14,197.919,-0.1917,-34,0,0,-5,0
15,197.923,-0.2434,-34,0,0,-5,0
16,197.927,-0.3104,-34,0,0,-5,0
17,197.933,-0.3864,-33,0,0,-5,0
18,197.94,-0.4716,-33,0,0,-5,0
19,197.945,-0.5629,-33,0,0,-5,0
20,197.956,-0.6755,-33,0,0,-5,0
21,197.967,-0.7151,-33,0,0,-5,0
22,197.98,-0.6633,-32,0,0,-5,0
23,197.988,-0.5964,-32,0,0,-5,0
24,197.997,-0.5538,-33,0,0,-5,0
25,198.003,-0.5082,-33,0,0,-5,0
26,198.013,-0.4503,-32,0,0,-5,0
27,198.018,-0.4169,-32,0,0,-5,0
28,198.027,-0.426,-32,0,0,-5,0
29,198.035,-0.4017,-32,0,0,-5,0
30,198.044,-0.4838,-32,0,0,-5,0
31,198.054,-0.5447,-31,0,0,-5,0
32,198.066,-0.5873,-31,0,0,-5,0
33,198.079,-0.6877,-31,0,0,-5,0
34,198.092,-0.6542,-31,0,0,-5,0
35,198.105,-0.5173,-31,0,0,-5,0
36,198.113,-0.2952,-31,0,0,-5,0
37,198.118,-0.1826,-30,0,0,-5,0
38,198.121,-0.0669,-30,0,0,-5,0
39,198.122,-0.0274,-30,0,0,-5,0
40,198.123,-0.0426,-30,0,0,-5,0
41,198.123,-0.0152,-30,0,0,-5,0
42,198.124,-0.0304,-30,0,0,-5,0
43,198.124,-0.0061,-30,0,0,-5,0
44,198.124,-0.0122,-29,0,0,-5,0
45,198.125,-0.0091,-29,0,0,-5,0
46,198.125,-0.003,-29,0,0,-5,0
47,198.125,0.003,-29,0,0,-5,0
48,198.125,-0.0183,-29,0,0,-5,0
49,198.125,-0.0152,-29,0,0,-5,0
50,198.125,0.0122,-29,0,0,-5,0
51,198.125,-0.0061,-29,0,0,-5,0
52,198.125,-0.0091,-29,0,0,-5,0
53,198.126,-0.0122,-29,0,0,-5,0
54,198.126,-0.0091,-28,0,0,-4,0
55,198.126,0.003,-28,0,0,-4,0
56,198.126,-0.003,-28,0,0,-4,0
57,198.126,-0.0091,-28,0,0,-4,0
58,198.126,0.003,-28,0,0,-4,0
59,198.126,-0.003,-28,0,0,-4,0
60,198.126,0,-28,0,0,-4,0
61,198.126,0,-27,0,0,-4,0
62,198.126,0,-27,0,0,-4,0
63,198.126,0.0061,-27,0,0,-4,0
64,198.126,-0.0122,-27,0,0,-4,0
65,198.126,0.003,-27,0,0,-4,0
66,198.126,-0.003,-27,0,0,-4,0
67,198.126,0.003,-27,0,0,-4,0
68,198.126,-0.0091,-27,0,0,-4,0
69,198.126,-0.0091,-26,0,0,-4,0
70,198.126,-0.0091,-26,0,0,-4,0
71,198.126,0.0061,-26,0,0,-4,0
72,198.126,0,-26,0,0,-4,0
73,198.126,0,-26,0,0,-4,0
74,198.126,0.0061,-26,0,0,-4,0
75,198.126,0.003,-26,0,0,-4,0
76,198.126,-0.0091,-26,0,0,-4,0
77,198.126,0.003,-25,0,0,-4,0
78,198.126,0.0061,-25,0,0,-4,0
79,198.126,0.003,-25,0,0,-4,0
80,198.126,0,-25,0,0,-4,0
81,198.126,0.003,-25,0,0,-4,0
82,198.126,0.003,-25,0,0,-4,0
83,198.126,-0.003,-25,0,0,-4,0
84,198.126,-0.0122,-25,0,0,-4,0
85,198.126,-0.0091,-24,0,0,-4,0
86,198.126,0,-24,0,0,-4,0
87,198.126,0,-24,0,0,-4,0
88,198.126,0.0122,-24,0,0,-4,0
89,198.126,0.0122,-24,0,0,-4,0
90,198.126,-0.0152,-24,0,0,-4,0
91,198.126,0,-23,0,0,-4,0
92,198.126,0.0152,-23,0,0,-4,0
93,198.126,-0.0152,-23,0,0,-4,0
94,198.126,0.003,-23,0,0,-4,0
95,198.126,0.0061,-23,0,0,-4,0
96,198.126,-0.0091,-23,0,0,-4,0
97,198.126,-0.0091,-23,0,0,-4,0
98,198.126,0.003,-23,0,0,-4,0
99,198.126,0.0091,-22,0,0,-3,0
100,198.126,0.0152,-22,0,0,-3,0
101,198.125,0,-22,0,0,-3,0
102,198.125,0.0122,-22,0,0,-3,0
103,198.125,0.0091,-22,0,0,-3,0
104,198.125,-0.003,-21,0,0,-3,0
105,198.125,0.0061,-21,0,0,-3,0
106,198.125,-0.0061,-21,0,0,-3,0
107,198.125,0,-21,0,0,-3,0
108,198.125,0.0061,-21,0,0,-3,0
109,198.125,-0.003,-21,0,0,-3,0
110,198.125,0.003,-21,0,0,-3,0
111,198.125,-0.0061,-21,0,0,-3,0
112,198.125,0.003,-21,0,0,-3,0
113,198.125,-0.003,-20,0,0,-3,0
114,198.125,-0.0061,-20,0,0,-3,0
115,198.125,0.0122,-20,0,0,-3,0
116,198.125,0.003,-20,0,0,-3,0
117,198.125,0.003,-20,0,0,-3,0
118,198.125,0.0122,-20,0,0,-3,0
119,198.125,-0.0091,-20,0,0,-3,0
120,198.125,-0.0091,-20,0,0,-3,0
121,198.125,0,-19,0,0,-3,0
122,198.125,-0.003,-19,0,0,-3,0
123,198.125,0.0091,-19,0,0,-3,0
124,198.125,0.0152,-19,0,0,-3,0
125,198.125,0,-19,0,0,-3,0
126,198.125,-0.0091,-19,0,0,-3,0
127,198.125,0.0183,-18,0,0,-3,0
128,198.125,0.003,-18,0,0,-3,0
129,198.125,0.0152,-18,0,0,-3,0
130,198.125,-0.0061,-18,0,0,-3,0
131,198.125,0,-18,0,0,-3,0
132,198.125,0.003,-18,0,0,-3,0
133,198.125,0,-18,0,0,-3,0
134,198.125,-0.003,-17,0,0,-2,0
135,198.125,-0.003,-17,0,0,-2,0
136,198.125,-0.0091,-17,0,0,-2,0
137,198.125,0.0152,-17,0,0,-2,0
138,198.125,-0.003,-17,0,0,-2,0
139,198.125,0.0061,-17,0,0,-2,0
140,198.125,0.003,-17,0,0,-2,0
141,198.125,-0.003,-17,0,0,-2,0
142,198.125,-0.0061,-16,0,0,-2,0
143,198.125,0.0152,-16,0,0,-2,0
144,198.125,0.003,-16,0,0,-2,0
145,198.125,0.0091,-16,0,0,-2,0
146,198.125,0.0213,-16,0,0,-2,0
147,198.125,-0.0091,-16,0,0,-2,0
148,198.125,-0.0091,-16,0,0,-2,0
149,198.124,0.0091,-15,0,0,-2,0
150,198.124,-0.003,-15,0,0,-2,0
151,198.124,-0.0061,-15,0,0,-2,0
152,198.124,-0.0091,-15,0,0,-2,0
153,198.124,0.003,-15,0,0,-2,0
154,198.124,-0.0061,-15,0,0,-2,0
155,198.124,0.0061,-14,0,0,-2,0
156,198.124,0.0091,-14,0,0,-2,0
157,198.124,-0.0061,-14,0,0,-2,0
158,198.124,0.0122,-14,0,0,-2,0
159,198.124,-0.0152,-14,0,0,-2,0
160,198.124,-0.003,-14,0,0,-2,0
161,198.124,-0.0061,-14,0,0,-2,0
162,198.124,-0.0152,-14,0,0,-2,0
163,198.124,0.0061,-14,0,0,-2,0
164,198.124,0.003,-14,0,0,-2,0
165,198.124,0.003,-13,0,0,-2,0
166,198.124,-0.003,-13,0,0,-2,0
167,198.124,0.003,-13,0,0,-2,0
168,198.124,0.0122,-13,0,0,-2,0
169,198.124,0.0122,-13,0,0,-2,0
170,198.124,0,-13,0,0,-2,0
171,198.124,-0.0183,-13,0,0,-2,0
172,198.124,-0.003,-13,0,0,-2,0
173,198.124,-0.0152,-12,0,0,-2,0
174,198.124,0.0183,-12,0,0,-2,0
175,198.124,-0.003,-12,0,0,-2,0
176,198.124,0,-12,0,0,-2,0
177,198.124,0.0091,-12,0,0,-2,0
178,198.124,0.003,-11,0,0,-1,0
179,198.124,-0.0122,-11,0,0,-1,0
180,198.124,-0.0152,-11,0,0,-1,0
181,198.124,0.0061,-11,0,0,-1,0
182,198.124,0.0061,-11,0,0,-1,0
183,198.124,-0.0152,-11,0,0,-1,0
184,198.124,0.0152,-11,0,0,-1,0
185,198.124,-0.0061,-10,0,0,-1,0
