cnt,pos,speed,DTorque,DAC,STorque,Force
1,-79.0773,-3.3497,0,0,0,0
3,-79.1323,-5.3726,0,0,0,0
5,-79.1743,-6.7971,0,0,0,0
7,-79.2105,-7.8974,0,0,0,0
9,-79.2434,-8.5339,0,0,0,0
11,-79.3175,-9.8953,0,0,0,0
13,-79.3681,-10.3399,0,0,0,0
15,-79.4215,-11.0086,0,0,0,0
17,-79.4775,-11.4998,0,0,0,0
19,-79.5244,-12.0612,0,0,0,0
21,-79.5737,-12.6048,-1,0,0,0
23,-79.6259,-13.5072,0,0,0,0
25,-79.6809,-14.1521,0,0,0,0
27,-79.7535,-15.0807,-1,0,0,0
29,-79.7992,-15.3859,0,0,0,0
31,-79.8619,-15.8901,0,0,0,0
33,-79.8941,-16.2894,0,0,0,0
35,-79.96,-16.7365,0,0,0,0
37,-79.9936,-16.951,0,0,0,0
39,-80.0795,-17.5554,-1,0,0,0
41,-80.1325,-17.8105,-1,0,0,0
43,-80.2414,-18.5985,0,0,0,0
45,-80.3353,-18.9418,0,0,0,0
47,-80.412,-19.4031,-1,0,0,0
49,-80.4901,-19.6916,0,0,0,0
51,-80.5494,-19.9431,0,0,0,0
53,-80.6499,-20.3198,0,0,0,0
55,-80.7111,-20.5808,0,0,0,0
57,-80.794,-20.9456,0,0,0,0
59,-80.8996,-21.3485,-1,0,0,0
61,-80.9426,-21.6668,0,0,0,0
63,-81.0081,-21.9767,0,0,0,0
65,-81.0974,-22.5823,0,0,0,0
67,-81.1428,-22.9673,0,0,0,0
69,-81.2824,-23.7076,0,0,0,0
71,-81.4022,-24.337,-1,0,0,0
73,-81.5249,-24.7781,0,0,0,0
75,-81.5998,-25.0892,0,0,0,0
77,-81.7013,-25.5231,0,0,0,0
79,-81.8043,-26.0297,0,0,0,0
81,-81.8826,-26.3456,-1,0,0,0
83,-81.9886,-26.7998,0,0,0,0
85,-82.1238,-27.3446,0,0,0,0
87,-82.2066,-27.7034,0,0,0,0
89,-82.3189,-28.3018,1,0,0,0
91,-82.3759,-28.7727,0,0,0,0
93,-82.4627,-29.228,0,0,0,0
95,-82.6103,-29.9874,1,0,0,0
97,-82.7615,-30.6191,0,0,0,0
99,-82.9156,-31.1603,-1,0,0,0
101,-83.0094,-31.4405,0,0,0,0
103,-83.1358,-31.8493,0,0,0,0
105,-83.2958,-32.2856,0,0,0,0
107,-83.4254,-32.5181,0,0,0,0
109,-83.5566,-33.0152,-1,0,0,0
111,-83.6893,-33.2774,0,0,0,0
113,-83.8234,-33.7638,-1,0,0,0
115,-83.959,-34.0403,-1,0,0,0
117,-84.0615,-34.2299,0,0,0,0
119,-84.1649,-34.6078,0,0,0,0
121,-84.3389,-35.0309,0,0,0,0
123,-84.4445,-35.3933,-1,0,0,0
125,-84.6225,-35.8618,0,0,0,0
127,-84.6943,-36.1825,0,0,0,0
129,-84.8392,-36.4805,0,0,0,0
131,-85.0223,-36.8274,1,0,0,0
133,-85.1702,-37.1194,0,0,0,0
135,-85.3196,-37.5533,0,0,0,0
137,-85.4704,-37.8466,0,0,0,0
139,-85.6229,-38.4152,0,0,0,0
141,-85.7772,-38.7645,-1,0,0,0
143,-85.855,-39.0613,-1,0,0,0
145,-85.9725,-39.2592,0,0,0,0
147,-86.1702,-39.7539,0,0,0,0
149,-86.25,-40.0924,-1,0,0,0
151,-86.4516,-40.6634,-1,0,0,0
153,-86.6152,-41.1223,1,0,0,0
155,-86.7391,-41.6242,-1,0,0,0
157,-86.8642,-41.9079,-1,0,0,0
159,-87.0746,-42.2929,0,0,0,0
161,-87.1595,-42.5886,-1,0,0,0
163,-87.4599,-43.4433,-1,0,0,0
165,-87.6781,-43.9475,0,0,0,0
167,-87.9437,-44.5924,1,0,0,0
169,-88.2127,-45.0132,0,0,0,0
171,-88.5315,-46.0587,0,0,0,0
173,-88.6699,-46.3853,1,0,0,0
175,-88.9967,-47.172,0,0,0,0
177,-89.3282,-47.7645,1,0,0,0
179,-89.6649,-48.5334,0,0,0,0
181,-90.0064,-49.034,0,0,0,0
183,-90.1539,-49.2748,0,0,0,0
185,-90.4015,-49.8768,-1,0,0,0
187,-90.6512,-50.1832,0,0,0,0
189,-90.9028,-50.5336,0,0,0,0
191,-91.0546,-50.6767,-1,0,0,0
193,-91.4615,-51.1499,0,0,0,0
195,-91.7178,-51.4575,-1,0,0,0
197,-92.0269,-51.6208,0,0,0,0
199,-92.2336,-51.7865,-1,0,0,0
201,-92.4929,-51.9486,0,0,0,0
203,-92.6488,-52.0106,0,0,0,0
205,-92.9091,-52.0762,0,0,0,0
207,-93.0134,-52.0916,0,0,0,0
209,-93.3264,-52.212,0,0,0,0
211,-93.4832,-52.3181,-1,0,0,0
213,-93.7449,-52.3539,-1,0,0,0
215,-93.9022,-52.4576,0,0,0,0
217,-94.1645,-52.4934,0,0,0,0
219,-94.3746,-52.6102,0,0,0,0
221,-94.5849,-52.5256,0,0,0,0
223,-94.9529,-52.3479,20,69.9673,0,31
225,-95.2098,-50.2928,70,71.3655,0,32
227,-95.4529,-46.8704,71,72.9131,0,33
229,-95.6821,-44.3075,73,74.3394,0,33
231,-95.982,-40.9626,75,75.6576,0,34
233,-96.2208,-38.1827,75,75.6576,0,34
235,-96.4425,-35.3206,75,76.874,0,35
237,-96.6467,-32.2344,77,77.9865,0,35
239,-96.832,-28.9872,77,79.1219,0,36
241,-97.0233,-25.0189,80,79.9894,0,36
243,-97.1432,-22.3797,78,80.7358,0,36
245,-97.3259,-17.6687,81,81.3674,0,37
247,-97.4091,-15.2035,81,81.886,0,37
249,-97.5051,-11.7298,81,82.3474,0,37
251,-97.559,-9.3016,82,82.3474,0,37
253,-97.6077,-6.4609,82,82.6369,0,37
255,-97.6257,-5.065,82,82.6369,0,37
257,-97.6514,-1.8,82,82.9091,0,37
259,-97.6552,0.9358,82,82.9023,0,37
261,-97.6329,3.5416,83,82.8279,0,37
263,-97.613,4.5525,83,82.7245,0,37
265,-97.5884,5.4072,82,82.5913,0,37
267,-97.5538,6.2595,82,82.4886,0,37
269,-97.5067,7.3001,83,82.2195,0,37
271,-97.4686,8.0464,83,82.0467,0,37
273,-97.4002,9.1252,81,81.6971,0,37
275,-97.3531,9.8535,82,81.5257,0,37
277,-97.2479,11.3102,81,81.0514,0,36
279,-97.1779,12.1792,81,80.6819,0,36
281,-97.0636,13.3761,80,80.2232,0,36
283,-96.9953,14.1795,81,79.9159,0,36
285,-96.8929,15.1606,79,79.524,0,36
287,-96.8157,15.8079,79,79.0394,0,36
289,-96.6859,16.7543,79,78.4543,0,35
291,-96.513,17.8713,78,77.9146,0,35
293,-96.4043,18.4661,77,77.2703,0,35
295,-96.2533,19.3924,77,76.6812,0,35
297,-96.1551,19.9252,76,76.2449,0,34
299,-95.9927,20.8014,76,75.4306,0,34
301,-95.8661,21.4522,75,74.865,0,34
303,-95.7137,22.1269,74,74.2831,0,33
305,-95.5113,22.9423,74,73.1791,0,33
307,-95.3726,23.3703,73,72.6633,0,33
309,-95.2072,23.9913,72,71.8186,0,32
311,-95.0622,24.4598,71,71.2788,0,32
313,-94.9144,24.9545,71,70.6197,0,32
315,-94.8142,25.2048,70,70.2853,0,32
317,-94.6619,25.6483,71,69.6086,0,31
319,-94.5331,25.9868,69,69.0359,0,31
321,-94.3239,26.3873,69,68.1064,0,31
323,-94.1646,26.8129,67,67.2789,0,30
325,-93.9209,27.4578,66,66.3153,0,30
327,-93.6711,28.1278,65,65.0801,0,29
329,-93.5299,28.4138,65,64.4512,0,29
331,-93.3014,28.7488,65,63.4341,0,29
333,-93.1572,28.9658,63,62.7921,0,28
335,-92.9243,29.284,62,61.7557,0,28
337,-92.748,29.4676,61,61.1023,0,27
339,-92.5118,29.5344,60,60.0523,0,27
341,-92.2758,29.4831,60,59.0035,0,27
343,-92.0989,29.4867,57,58.0863,0,26
345,-91.863,29.4772,57,56.9066,0,26
347,-91.657,29.3055,57,56.2533,0,25
349,-91.3664,28.7047,54,54.834,0,25
351,-91.1951,28.3244,54,54.2004,0,24
353,-90.9707,27.6843,54,53.2032,0,24
355,-90.8057,27.2564,53,52.3485,0,24
357,-90.5903,26.5733,52,51.6308,0,23
359,-90.4584,26.0715,51,50.8099,0,23
361,-90.2514,25.5207,50,49.893,0,22
363,-90.0243,24.8651,49,48.997,0,22
365,-89.8761,24.4979,48,48.2292,0,22
367,-89.6823,23.8721,48,47.3707,0,21
369,-89.5402,23.3571,47,46.9497,0,21
371,-89.3791,22.5513,45,46.0293,0,21
373,-89.2458,21.792,46,45.6342,0,21
375,-89.0754,20.6595,45,44.7794,0,20
377,-88.9537,19.7679,44,44.2387,0,20
379,-88.7993,18.8345,43,43.7203,0,20
381,-88.7252,18.1693,42,43.223,0,19
383,-88.5663,17.1394,41,42.6696,0,19
385,-88.4993,16.423,42,42.2191,0,19
387,-88.4032,15.4824,42,41.655,0,19
389,-88.3125,14.6039,41,41.5206,0,19
391,-88.2272,13.6681,41,41.0714,0,18
393,-88.1736,13.2008,41,40.8892,0,18
395,-88.0976,12.1411,40,40.434,0,18
397,-88.0385,11.5439,40,40.2741,0,18
399,-87.9725,10.5521,40,39.925,0,18
401,-87.9209,9.8821,39,39.7385,0,18
403,-87.8546,8.9345,39,39.3539,0,18
405,-87.8196,8.5542,39,39.2364,0,18
407,-87.7554,7.498,39,38.9466,0,18
409,-87.7261,6.989,38,38.7825,0,17
411,-87.6672,5.9984,38,38.5478,0,17
413,-87.6438,5.5872,38,38.3918,0,17
415,-87.6018,4.9077,38,38.2742,0,17
417,-87.5623,3.8813,38,38.0719,0,17
419,-87.5476,3.3747,38,38.021,0,17
421,-87.5262,2.5224,37,37.8716,0,17
423,-87.5046,1.6427,37,37.806,0,17
425,-87.497,1.378,37,37.7644,0,17
427,-87.4904,0.8476,37,37.735,0,17
429,-87.4864,0.4053,37,37.735,0,17
431,-87.4854,-0.1872,37,37.735,0,17
433,-87.4868,-0.0644,37,37.735,0,17
435,-87.4865,0.0679,37,37.735,0,17
437,-87.4863,0.0024,37,37.735,0,17
439,-87.4865,-0.031,37,37.735,0,17
441,-87.4866,0.0119,37,37.735,0,17
443,-87.4866,-0.0191,37,37.735,0,17
445,-87.4867,-0.0226,37,37.735,0,17
447,-87.4869,-0.0107,37,37.735,0,17
449,-87.487,-0.0334,37,37.735,0,17
451,-87.4873,-0.0393,37,37.735,0,17
453,-87.4875,-0.0548,37,37.735,0,17
455,-87.4879,-0.0536,37,37.735,0,17
457,-87.4883,-0.0262,37,37.735,0,17
459,-87.4884,-0.0036,37,37.735,0,17
461,-87.4884,-0.0036,37,37.735,0,17
463,-87.4884,-0.006,37,37.735,0,17
465,-87.4885,-0.0048,37,37.735,0,17
467,-87.4885,0.0012,37,37.735,0,17
469,-87.4884,-0.0036,37,37.735,0,17
471,-87.4884,0.0036,37,37.735,0,17
473,-87.4884,0.0012,37,37.735,0,17
475,-87.4884,-0.0012,37,37.735,0,17
477,-87.4884,0,37,37.735,0,17
479,-87.4885,-0.0083,37,37.735,0,17
481,-87.4885,-0.0179,37,37.735,0,17
483,-87.4887,-0.031,37,37.735,0,17
485,-87.489,-0.0393,37,37.735,0,17
487,-87.4892,-0.0381,37,37.735,0,17
489,-87.4894,-0.0393,37,37.735,0,17
491,-87.4896,-0.0322,37,37.735,0,17
493,-87.4898,-0.0072,37,37.735,0,17
495,-87.4898,0.0012,37,37.735,0,17
497,-87.4898,-0.0119,37,37.735,0,17
499,-87.4899,-0.0036,37,37.735,0,17
501,-87.4899,-0.0012,37,37.735,0,17
503,-87.4899,-0.006,37,37.735,0,17
505,-87.4899,-0.0048,37,37.735,0,17
507,-87.4899,0,37,37.735,0,17
509,-87.4899,0.0048,37,37.735,0,17
511,-87.4899,0.0012,37,37.735,0,17
513,-87.4899,0,37,37.735,0,17
515,-87.4899,0.0048,37,37.735,0,17
517,-87.4899,0.0012,37,37.735,0,17
519,-87.49,-0.0012,37,37.735,0,17
521,-87.49,-0.0036,37,37.735,0,17
523,-87.49,-0.0048,37,37.735,0,17
525,-87.49,-0.0024,37,37.735,0,17
527,-87.49,-0.0024,37,37.735,0,17
529,-87.49,0.0048,37,37.735,0,17
531,-87.49,0.0012,37,37.735,0,17
533,-87.49,-0.0012,37,37.735,0,17
535,-87.49,0,37,37.735,0,17
537,-87.49,0,37,37.735,0,17
539,-87.49,-0.0036,37,37.735,0,17
541,-87.49,-0.0024,37,37.735,0,17
543,-87.49,0.0012,37,37.735,0,17
545,-87.49,0,37,37.735,0,17
547,-87.49,-0.0024,37,37.735,0,17
549,-87.49,0,37,37.735,0,17
551,-87.49,-0.0024,37,37.735,0,17
553,-87.49,0.0024,37,37.735,0,17
555,-87.49,0.0024,37,37.735,0,17
557,-87.49,0,37,37.735,0,17
559,-87.49,-0.0024,37,37.735,0,17
561,-87.49,0.0036,37,37.735,0,17
563,-87.49,-0.0024,37,37.735,0,17
565,-87.4901,-0.0072,37,37.735,0,17
567,-87.49,-0.0036,37,37.735,0,17
569,-87.4901,-0.0048,37,37.735,0,17
571,-87.4901,0.006,37,37.735,0,17
573,-87.4901,-0.0036,37,37.735,0,17
575,-87.4901,-0.0012,37,37.735,0,17
577,-87.4901,0.0012,37,37.735,0,17
579,-87.4901,-0.0036,37,37.735,0,17
581,-87.4901,-0.0036,37,37.735,0,17
583,-87.4901,0,37,37.735,0,17
585,-87.4901,0.0012,37,37.735,0,17
587,-87.4901,-0.0012,37,37.735,0,17
589,-87.4901,-0.0036,37,37.735,0,17
591,-87.4901,0.0012,37,37.735,0,17
593,-87.4901,-0.0012,37,37.735,0,17
595,-87.4901,-0.0048,37,37.735,0,17
597,-87.4901,-0.0036,37,37.735,0,17
599,-87.4901,0.0024,37,37.735,0,17
601,-87.4902,0,37,37.735,0,17
603,-87.4901,0.0012,37,37.735,0,17
605,-87.4902,-0.0072,37,37.735,0,17
607,-87.4902,0.0048,37,37.735,0,17
609,-87.4902,0.0012,37,37.735,0,17
611,-87.4902,-0.0024,37,37.735,0,17
613,-87.4902,0.0024,37,37.735,0,17
615,-87.4902,-0.0024,37,37.735,0,17
617,-87.4902,0.0012,37,37.735,0,17
619,-87.4902,-0.0048,37,37.735,0,17
621,-87.4902,-0.0012,37,37.735,0,17
623,-87.4902,0.0036,37,37.735,0,17
625,-87.4902,-0.0024,37,37.735,0,17
627,-87.4902,-0.0036,37,37.735,0,17
629,-87.4902,-0.0024,37,37.735,0,17
631,-87.4902,-0.0012,37,37.735,0,17
633,-87.4902,0.0036,37,37.735,0,17
635,-87.4902,-0.0024,37,37.735,0,17
637,-87.4902,0.0036,37,37.735,0,17
639,-87.4902,-0.0048,37,37.735,0,17
641,-87.4902,0.0048,37,37.735,0,17
643,-87.4902,-0.0048,37,37.735,0,17
645,-87.4902,0,37,37.735,0,17
647,-87.4902,-0.0072,37,37.735,0,17
649,-87.4902,-0.0012,37,37.735,0,17
651,-87.4902,-0.0012,37,37.735,0,17
653,-87.4903,-0.0048,37,37.735,0,17
655,-87.4903,0,37,37.735,0,17
657,-87.4903,-0.0012,37,37.735,0,17
659,-87.4903,-0.0012,37,37.735,0,17
661,-87.4903,-0.0024,37,37.735,0,17
663,-87.4903,-0.0024,37,37.735,0,17
665,-87.4903,0.0024,37,37.735,0,17
667,-87.4903,-0.0036,37,37.735,0,17
669,-87.4903,-0.0024,37,37.735,0,17
671,-87.4903,0.0024,37,37.735,0,17
673,-87.4903,0,37,37.735,0,17
675,-87.4903,0,37,37.735,0,17
677,-87.4903,-0.006,37,37.735,0,17
679,-87.4903,-0.0024,37,37.735,0,17
681,-87.4904,-0.0072,37,37.735,0,17
683,-87.4904,-0.0012,37,37.735,0,17
685,-87.4904,0,37,37.735,0,17
687,-87.4904,-0.0012,37,37.735,0,17
689,-87.4904,-0.0024,37,37.735,0,17
691,-87.4905,0.0036,37,37.735,0,17
693,-87.4905,-0.0083,37,37.735,0,17
695,-87.4905,0.0012,37,37.735,0,17
697,-87.4905,-0.0048,37,37.735,0,17
699,-87.4906,0.0012,37,37.735,0,17
701,-87.4906,-0.0012,37,37.735,0,17
703,-87.4906,0,37,37.735,0,17
705,-87.4906,0.0024,37,37.735,0,17
707,-87.4906,-0.0048,37,37.735,0,17
709,-87.4907,-0.0012,37,37.735,0,17
711,-87.4907,-0.0012,37,37.735,0,17
713,-87.4907,-0.0024,37,37.735,0,17
715,-87.4907,-0.0048,37,37.735,0,17
717,-87.4907,-0.0024,37,37.735,0,17
719,-87.4908,-0.0036,37,37.735,0,17
721,-87.4908,-0.0036,37,37.735,0,17
723,-87.4908,-0.0012,37,37.735,0,17
725,-87.4908,-0.0048,37,37.735,0,17
727,-87.4909,-0.006,37,37.735,0,17
729,-87.4909,-0.0107,37,37.735,0,17
731,-87.491,-0.0107,37,37.735,0,17
733,-87.4911,-0.0131,37,37.735,0,17
735,-87.4911,-0.0107,37,37.735,0,17
737,-87.4912,-0.0119,37,37.735,0,17
739,-87.4913,-0.0155,37,37.735,0,17
741,-87.4914,-0.0083,37,37.735,0,17
743,-87.4915,-0.0143,37,37.735,0,17
745,-87.4916,-0.0191,37,37.735,0,17
747,-87.4918,-0.0215,37,37.735,0,17
749,-87.4919,-0.0155,37,37.735,0,17
751,-87.492,-0.0131,37,37.735,0,17
753,-87.4922,-0.0107,37,37.735,0,17
755,-87.4922,-0.006,37,37.735,0,17
757,-87.4923,-0.0143,37,37.735,0,17
759,-87.4924,-0.0095,37,37.735,0,17
761,-87.4925,-0.0107,37,37.735,0,17
763,-87.4925,-0.0024,37,37.735,0,17
765,-87.4925,-0.0048,37,37.735,0,17
767,-87.4926,-0.0083,37,37.735,0,17
769,-87.4926,-0.0012,37,37.735,0,17
771,-87.4926,-0.0024,37,37.735,0,17
773,-87.4926,0,37,37.735,0,17
775,-87.4927,0.0012,37,37.735,0,17
777,-87.4927,-0.0024,37,37.735,0,17
779,-87.4927,-0.0024,37,37.735,0,17
781,-87.4927,0.006,37,37.735,0,17
783,-87.4927,-0.006,37,37.735,0,17
785,-87.4927,0,37,37.735,0,17
787,-87.4927,0.0012,37,37.735,0,17
789,-87.4927,-0.0024,37,37.735,0,17
791,-87.4927,-0.0024,37,37.735,0,17
793,-87.4928,-0.0012,37,37.735,0,17
795,-87.4928,-0.0036,37,37.735,0,17
797,-87.4928,-0.0036,37,37.735,0,17
799,-87.4928,-0.006,37,37.735,0,17
801,-87.4928,-0.0072,37,37.735,0,17
803,-87.4929,-0.0048,37,37.735,0,17
805,-87.4929,-0.0072,37,37.735,0,17
807,-87.4929,-0.0107,37,37.735,0,17
809,-87.493,-0.0119,37,37.735,0,17
811,-87.4931,-0.0083,37,37.735,0,17
813,-87.4931,-0.0143,37,37.735,0,17
815,-87.4933,-0.0203,37,37.735,0,17
817,-87.4935,-0.0238,37,37.735,0,17
819,-87.4936,-0.0203,37,37.735,0,17
821,-87.4937,-0.0262,37,37.735,0,17
823,-87.4939,-0.0298,37,37.735,0,17
825,-87.4941,-0.0393,37,37.735,0,17
827,-87.4945,-0.0501,37,37.735,0,17
829,-87.4952,-0.087,37,37.735,0,17
831,-87.4957,-0.1073,37,37.735,0,17
833,-87.4968,-0.1383,37,37.735,0,17
835,-87.4974,-0.1514,37,37.735,0,17
837,-87.499,-0.1717,37,37.735,0,17
839,-87.5003,-0.1621,37,37.735,0,17
841,-87.5018,-0.1562,37,37.735,0,17
843,-87.503,-0.1359,37,37.735,0,17
845,-87.5038,-0.1132,37,37.735,0,17
847,-87.5045,-0.0834,37,37.735,0,17
849,-87.505,-0.0584,37,37.735,0,17
851,-87.5053,-0.031,37,37.735,0,17
853,-87.5055,-0.0167,37,37.735,0,17
855,-87.5056,-0.0107,37,37.735,0,17
857,-87.5057,-0.0024,37,37.735,0,17
859,-87.5057,-0.0048,37,37.735,0,17
861,-87.5057,-0.0036,37,37.735,0,17
863,-87.5058,-0.0036,37,37.735,0,17
865,-87.5058,-0.0083,37,37.735,0,17
867,-87.5058,-0.0036,37,37.735,0,17
869,-87.5059,-0.0083,37,37.735,0,17
871,-87.506,-0.0048,37,37.735,0,17
873,-87.506,-0.0083,37,37.735,0,17
875,-87.5061,-0.0095,37,37.735,0,17
877,-87.5062,-0.0131,37,37.735,0,17
879,-87.5064,-0.0191,37,37.735,0,17
881,-87.5065,-0.025,37,37.735,0,17
883,-87.5067,-0.0286,37,37.735,0,17
885,-87.5069,-0.0381,37,37.735,0,17
887,-87.5073,-0.0393,37,37.735,0,17
889,-87.5075,-0.0429,37,37.735,0,17
891,-87.5079,-0.0429,37,37.735,0,17
893,-87.5082,-0.0453,37,37.735,0,17
895,-87.5086,-0.0465,37,37.735,0,17
897,-87.5089,-0.0525,37,37.735,0,17
899,-87.5095,-0.0668,37,37.735,0,17
901,-87.51,-0.1013,37,37.735,0,17
903,-87.5111,-0.1442,37,37.735,0,17
905,-87.5125,-0.2181,37,37.735,0,17
907,-87.5149,-0.3409,37,37.735,0,17
909,-87.5171,-0.4411,37,37.735,0,17
911,-87.5232,-0.7045,37,37.735,0,17
913,-87.5279,-0.9012,37,37.735,0,17
915,-87.5371,-1.2457,37,37.9428,0,17
917,-87.545,-1.4591,37,37.9845,0,17
919,-87.5616,-1.887,37,38.0352,0,17
921,-87.576,-2.2816,38,38.0866,0,17
923,-87.5957,-2.7072,38,38.1575,0,17
925,-87.6097,-2.9313,38,38.2275,0,17
927,-87.6381,-3.4617,38,38.4223,0,17
929,-87.6636,-3.8921,38,38.5396,0,17
931,-87.701,-4.537,38,38.6712,0,17
933,-87.7296,-5.0948,38,38.8206,0,17
935,-87.7732,-5.9245,38,38.9919,0,18
937,-87.8038,-6.4645,38,39.186,0,18
939,-87.8584,-7.3228,39,39.4034,0,18
941,-87.9041,-8.0619,39,39.646,0,18
943,-87.9817,-9.3171,40,39.9187,0,18
945,-88.0397,-10.2314,39,40.2219,0,18
947,-88.1383,-11.8717,40,40.5626,0,18
949,-88.2521,-13.7063,40,40.9437,0,18
951,-88.3985,-16.082,41,41.7709,0,19
953,-88.5141,-17.4386,41,42.285,0,19
955,-88.6798,-19.5247,43,42.8504,0,19
957,-88.7795,-20.6273,42,43.3739,0,20
959,-88.9954,-22.7385,45,44.627,0,20
961,-89.2328,-25.0296,44,45.3692,0,20
963,-89.4934,-27.3624,45,46.1617,0,21
965,-89.836,-30.1006,46,47.7668,0,21
967,-90.0496,-31.3546,47,48.5615,0,22
969,-90.4064,-33.8007,49,50.546,0,23
971,-90.6478,-35.286,51,51.6116,0,23
973,-91.0481,-37.874,52,53.7142,0,24
975,-91.3163,-39.2472,54,54.9137,0,25
977,-91.6776,-41.4502,54,56.1625,0,25
979,-91.9706,-42.6649,56,57.4585,0,26
981,-92.4069,-44.7903,58,58.7993,0,26
983,-92.8636,-46.8621,59,61.4093,0,28
985,-93.3389,-48.5596,62,62.8731,0,28
987,-93.6827,-49.7505,63,64.3783,0,29
989,-94.0346,-50.9401,64,65.922,0,30
991,-94.2909,-51.7364,66,67.5017,0,30
993,-94.6039,-52.7067,67,69.3508,0,31
995,-94.8155,-53.2766,66,69.3508,0,31
997,-95.1914,-54.2958,70,71.0034,0,32
999,-95.464,-54.8834,71,72.4449,0,33
1001,-95.9062,-55.8883,73,74.1516,0,33
1003,-96.5838,-57.1603,76,77.6435,0,35
1005,-96.9283,-57.7551,78,79.169,0,36
1007,-97.5093,-58.493,80,82.5235,0,37
1009,-97.8614,-58.9221,82,84.3522,0,38
1011,-98.4527,-59.3954,83,86.1927,0,39
1013,-98.7503,-59.6409,85,88.0443,0,40
1015,-99.1686,-59.9044,88,89.9042,0,40
1017,-99.6481,-60.0391,90,91.7695,0,41
1019,-100.068,-60.0343,89,93.6378,0,42
1021,-100.549,-60.0617,93,95.5061,0,43
1023,-101.029,-59.8197,97,97.3734,0,44
1025,-101.388,-59.7184,98,98.9692,0,45
1027,-101.805,-59.5921,97,100.827,0,45
1029,-102.281,-59.2738,101,102.415,0,46
1031,-102.636,-59.033,104,104.26,0,47
1033,-103.047,-58.431,103,106.357,0,48
1035,-103.455,-57.9554,105,107.915,0,49
1037,-103.973,-57.0721,108,109.718,0,49
1039,-104.258,-56.656,110,111.111,0,50
1041,-104.654,-56.1268,112,111.111,0,50
1043,-105.155,-55.3543,110,111.111,0,50
1045,-105.541,-54.9895,111,111.111,0,50
1047,-105.924,-54.3411,111,111.111,0,50
1049,-106.249,-53.9524,111,111.111,0,50
1051,-106.732,-53.0894,110,111.111,0,50
1053,-107.154,-52.5065,110,111.111,0,50
1055,-107.52,-51.9522,112,111.111,0,50
1057,-107.78,-51.5779,110,111.111,0,50
1059,-108.19,-51.169,112,111.111,0,50
1061,-108.496,-50.84,110,111.111,0,50
1063,-108.952,-50.3727,113,111.111,0,50
1065,-109.253,-50.0914,112,111.111,0,50
1067,-109.802,-49.5871,109,111.111,0,50
1069,-110.098,-49.2939,109,111.111,0,50
1071,-110.59,-48.922,111,111.111,0,50
1073,-110.883,-48.7908,111,111.111,0,50
1075,-111.369,-48.4821,111,111.111,0,50
1077,-111.66,-48.4678,112,111.111,0,50
1079,-112.095,-48.1507,109,111.111,0,50
1081,-112.383,-47.9755,112,111.111,0,50
1083,-112.719,-47.8384,110,111.111,0,50
1085,-113.053,-47.501,111,111.111,0,50
1087,-113.385,-47.3711,110,111.111,0,50
1089,-113.67,-47.2817,112,111.111,0,50
1091,-114.047,-46.9289,110,111.111,0,50
1093,-114.282,-46.9491,112,111.111,0,50
1095,-114.657,-46.7989,112,111.111,0,50
1097,-114.937,-46.5796,111,111.111,0,50
1099,-115.355,-46.2828,112,111.111,0,50
1101,-115.679,-46.2029,112,111.111,0,50
1103,-116.139,-45.949,111,111.111,0,50
1105,-116.461,-45.8989,110,111.111,0,50
1107,-116.873,-45.6474,111,111.111,0,50
1109,-117.192,-45.5747,111,111.111,0,50
1111,-117.603,-45.6164,111,111.111,0,50
1113,-117.876,-45.4984,111,111.111,0,50
1115,-118.24,-45.6629,111,111.111,0,50
1117,-118.469,-45.7869,111,111.111,0,50
1119,-118.88,-45.7094,111,111.111,0,50
1121,-119.338,-45.893,112,111.111,0,50
1123,-119.615,-46.1659,112,111.111,0,50
1125,-120.031,-46.4651,111,111.111,0,50
1127,-120.311,-46.8335,112,111.111,0,50
1129,-120.734,-47.1017,110,111.111,0,50
1131,-121.255,-47.6739,112,111.111,0,50
1133,-121.542,-47.929,112,111.111,0,50
1135,-121.879,-48.3557,111,111.111,0,50
1137,-122.17,-48.7217,112,111.111,0,50
1139,-122.561,-49.1592,111,111.111,0,50
