cnt,pos,speed,DTorque,DAC,STorque,Force,Dir
1,126.91,-0.0304,0,0,0,0,1
2,126.91,-0.0061,0,0,0,0,1
3,126.91,-0.0061,0,0,0,0,1
4,126.911,-0.0091,0,0,0,0,1
5,126.911,-0.0061,0,0,0,0,1
6,126.911,-0.0061,0,0,0,0,1
7,126.911,-0.0091,0,0,0,0,1
8,126.912,-0.0061,0,0,0,0,1
9,126.912,0,0,0,0,0,1
10,126.912,-0.0091,0,0,0,0,1
11,126.912,-0.0061,0,0,0,0,1
12,126.912,-0.0091,0,0,0,0,1
13,126.912,0.0061,0,0,0,0,1
14,126.912,-0.003,0,0,0,0,1
15,126.912,-0.003,0,0,0,0,1
16,126.913,0,0,0,0,0,1
17,126.913,-0.0061,0,0,0,0,1
18,126.913,-0.003,0,0,0,0,1
19,126.913,-0.0091,0,0,0,0,1
20,126.913,-0.003,0,0,0,0,1
21,126.913,-0.1308,0,0,0,0,1
22,126.935,-2.0448,0,0,0,0,1
23,127.22,-12.9048,0,0,0,0,1
24,127.868,-31.938,0,15.2127,0,3,1
25,129.514,-48.4182,29,42.7014,0,8,1
26,131.547,-51.2206,54,70.3541,0,12,1
27,133.625,-42.229,82,95.5218,0,17,1
28,135.182,-34.0223,105,110.619,0,19,1
29,136.341,-21.4827,123,128.867,0,23,1
30,136.955,-8.1093,134,136.599,0,24,1
31,137.121,-2.2609,137,138.238,0,24,1
32,137.243,-4.7956,139,140.577,0,25,1
33,137.446,-7.9571,141,144.559,0,25,1
34,137.903,-22.8946,145,152.23,0,27,1
35,139.339,-52.4165,160,167.582,0,29,1
36,141.396,-69.3653,182,201.943,0,36,1
37,145.582,-75.2867,240,251.321,0,44,1
38,148.549,-57.4251,284,296.25,0,52,1
39,150.336,-38.1789,311,321.812,0,57,1
40,151.223,1.1076,329,330.293,0,58,1
41,151.211,0.6633,331,330.293,0,58,1
42,151.078,9.0799,328,327.223,0,58,1
43,150.484,24.6625,322,318.23,0,56,1
44,149.419,35.7994,307,304.238,0,54,1
45,147.706,50.9772,284,270.534,0,48,1
46,145.309,50.0552,253,236.269,0,42,1
47,143.146,50.9772,223,210.443,0,37,1
48,141.111,50.5756,195,183.505,0,32,1
49,139.401,46.8115,171,163.99,0,29,1
50,137.702,45.1227,146,133.096,0,23,1
51,135.831,36.6727,119,112.414,0,20,1
52,134.337,27.4406,99,92.2069,0,16,1
53,132.906,12.2628,80,77.1536,0,14,1
54,132.457,1.9322,74,74.1837,0,13,1
55,132.384,1.7162,73,72.9361,0,13,1
56,132.247,4.9173,71,70.1829,0,12,1
57,132.007,10.7626,67,65.0686,0,11,1
58,131.392,17.6091,59,52.0962,0,9,1
59,130.266,18.0138,45,38.7432,0,7,1
60,129.469,4.2174,33,32.976,0,6,1
61,129.39,-0.0396,32,32.675,0,6,1
62,129.39,0.0091,32,32.675,0,6,1
63,129.39,0.0061,32,32.675,0,6,1
64,129.39,0.0183,32,32.675,0,6,1
65,129.389,0.0213,32,32.675,0,6,1
66,129.388,0.0091,32,32.675,0,6,1
67,129.387,0.0183,32,32.675,0,6,1
68,129.387,0.0061,32,32.675,0,6,1
69,129.387,0.0122,32,32.675,0,6,1
70,129.386,0.0122,32,32.675,0,6,1
71,129.386,0.003,32,32.675,0,6,1
72,129.386,-0.0517,32,32.675,0,6,1
73,129.393,-0.4808,32,32.675,0,6,1
74,129.496,-6.1344,33,35.1458,0,6,1
75,129.936,-16.0146,38,41.5402,0,7,1
76,131.008,-38.6718,49,64.9583,0,11,1
77,134.167,-79.0538,87,95.6947,0,17,1
78,139.404,-124.353,151,189.538,0,33,1
79,148.666,-130.685,273,311.365,0,55,1
80,154.026,-85.8546,340,340.909,0,60,1
81,156.777,-44.8884,342,340.909,0,60,1
82,158.546,-24.203,340,340.909,0,60,1
83,159.113,0.3804,340,340.909,0,60,1
84,159.11,-0.0517,340,340.909,0,60,1
85,159.115,-0.2282,340,340.909,0,60,1
86,159.166,-5.6141,340,340.909,0,60,1
87,159.931,-35.3551,339,340.909,0,60,1
88,161.581,-62.8262,339,340.909,0,60,1
89,165.692,-110.201,341,340.909,0,60,1
90,171.297,-168.536,340,340.909,0,60,1
91,177.029,-209.611,340,340.909,0,60,1
92,183.595,-237.195,339,340.909,0,60,1
93,191.22,-258.233,340,340.909,0,60,1
94,199.721,-250.191,338,340.909,0,60,1
95,207.519,-234.134,340,340.909,0,60,1
96,215.327,-202.57,338,340.909,0,60,1
97,221.812,-152.783,341,340.909,0,60,1
98,226.036,-126.349,341,340.909,0,60,1
99,229.044,-108.558,339,340.909,0,60,1
100,232.302,-85.3738,340,340.909,0,60,1
101,234.73,-69.5296,341,340.909,0,60,1
102,237.048,-72.1039,341,340.909,0,60,1
103,239.809,-100.463,342,340.909,0,60,1
104,243.602,-139.54,342,340.909,0,60,1
105,249.131,-212.164,341,340.909,0,60,1
106,258.309,-271.099,342,340.909,0,60,1
107,269.135,-323.868,340,340.909,0,60,1
108,279.732,-367.04,340,340.909,0,60,1
109,291.747,-386.408,339,340.909,0,60,1
110,302.639,-388.69,339,340.909,0,60,1
111,314.587,-375.688,339,340.909,0,60,1
112,327.973,-337.232,339,340.909,0,60,1
113,337.423,-312.217,340,340.909,0,60,1
114,346.98,-300.669,339,340.909,0,60,1
115,356.812,-267.904,341,340.909,0,60,1
116,365.678,-195.489,478,683.429,0,120,1
117,368.387,128.853,835,778.644,0,137,1
118,359.912,326.765,514,511.364,0,90,1
119,349.252,334.804,512,511.364,0,90,1
120,337.932,331.795,512,511.364,0,90,1
121,323.887,365.65,509,511.364,0,90,1
122,313.047,376.467,512,511.364,0,90,1
123,301.241,319.733,513,511.364,0,90,1
124,290.257,237.946,512,511.364,0,90,1
125,283.515,188.734,510,511.364,0,90,1
126,276.527,168.751,512,511.364,0,90,1
127,272.283,153.044,512,511.364,0,90,1
128,268.532,131.263,512,511.364,0,90,1
129,264.996,110.222,512,511.364,0,90,1
130,261.536,86.8314,510,511.364,0,90,1
131,259.895,72.0826,512,511.364,0,90,1
132,257.894,61.9924,511,511.364,0,90,1
133,256.29,46.6229,511,511.364,0,90,1
134,254.618,37.8716,510,511.364,0,90,1
135,252.982,56.783,511,511.364,0,90,1
136,251.238,66.0577,510,511.364,0,90,1
137,248.72,84.0319,510,511.364,0,90,1
138,245.587,109.178,512,511.364,0,90,1
139,240.592,148.328,512,511.364,0,90,1
140,235.79,180.056,512,511.364,0,90,1
141,226.61,212.326,511,511.364,0,90,1
142,221.399,224.667,511,511.364,0,90,1
143,214.755,233.975,512,511.364,0,90,1
144,206.643,244.927,510,511.364,0,90,1
145,198.497,246.844,512,511.364,0,90,1
146,192.616,241.796,510,511.364,0,90,1
147,185.424,238.418,511,511.364,0,90,1
148,177.987,243.025,510,511.364,0,90,1
149,170.594,250.349,510,511.364,0,90,1
150,162.031,250.011,510,511.364,0,90,1
151,153.76,233.711,512,336.283,0,59,1
152,146.467,124.259,277,252.572,0,44,1
153,144.141,-3.3319,233,233.532,0,41,1
154,144.822,-31.2655,236,243.441,0,43,1
155,145.788,-38.5471,251,258.333,0,45,1
156,146.895,-27.2672,265,272.463,0,48,1
157,147.362,2.5621,276,277.467,0,49,1
158,147.151,17.4783,276,273.139,0,48,1
159,146.182,45.3905,265,257.806,0,45,1
160,144.236,71.4223,238,225.114,0,40,1
161,142.284,87.2239,213,204.879,0,36,1
162,139.147,96.1821,172,161.717,0,28,1
163,136.056,93.2731,128,117.084,0,21,1
164,133.122,69.916,89,77.7185,0,14,1
165,131.534,39.3443,63,59.0603,0,10,1
166,130.76,8.301,51,50.483,0,9,1
167,130.714,0.0791,49,50.5442,0,9,1
168,130.714,-0.0243,50,50.5442,0,9,1
169,130.714,0.0152,50,50.5442,0,9,1
170,130.712,0.2617,50,50.5442,0,9,1
171,130.701,0.9007,50,50.5442,0,9,1
172,130.654,2.6017,49,49.5796,0,9,1
173,130.479,10.8357,47,45.448,0,8,1
174,130.01,11.925,42,39.746,0,7,1
175,129.664,7.9115,36,35.408,0,6,1
176,129.489,0.2465,34,33.9438,0,6,1
177,129.488,-0.0913,33,33.9438,0,6,1
178,129.488,-0.0304,33,33.9438,0,6,1
179,129.488,0,33,33.9438,0,6,1
180,129.488,0.0152,33,33.9438,0,6,1
181,129.488,-0.0578,33,33.9438,0,6,1
182,129.488,0.0639,33,33.9438,0,6,1
183,129.487,0.0365,33,33.9438,0,6,1
184,129.486,0.0091,33,33.9438,0,6,1
185,129.486,0.0061,33,33.9438,0,6,1
186,129.486,0.003,33,33.9438,0,6,1
187,129.486,0.0091,33,33.9438,0,6,1
188,129.487,0.1369,33,33.9438,0,6,1
189,129.487,-0.5903,33,33.9438,0,6,1
190,129.57,-9.4572,34,35.5341,0,6,1
191,130.262,-49.045,39,46.3477,0,8,1
192,133.361,-118.556,72,93.0502,0,16,1
193,138.461,-118.243,134,161.123,0,28,1
194,141.414,-76.5465,181,199.744,0,35,1
195,143.664,-32.8813,222,227.237,0,40,1
196,144.81,-38.7236,236,245.51,0,43,1
197,146.192,-60.4527,255,265.781,0,47,1
198,147.873,-79.209,273,306.419,0,54,1
199,151.409,-101.714,317,331.468,0,58,1
200,154.706,-104.623,342,340.909,0,60,1
201,157.604,-111.932,340,340.909,0,60,1
202,161.228,-125.056,341,340.909,0,60,1
203,164.64,-143.672,342,340.909,0,60,1
204,169.203,-182.161,341,340.909,0,60,1
205,176.386,-256.395,340,340.909,0,60,1
206,186.622,-346.194,340,340.909,0,60,1
207,198.695,-422.372,340,340.909,0,60,1
208,214.681,-504.353,339,340.909,0,60,1
209,229.027,-570.252,341,340.909,0,60,1
210,254.77,-667.725,341,340.909,0,60,1
211,277.644,-731.184,340,340.909,0,60,1
212,304.422,-762.668,341,340.909,0,60,1
213,331.247,-761.828,338,340.909,0,60,1
214,355.151,-715.443,339,340.909,0,60,1
215,379.876,-429.173,1030,1643.54,0,289,1
216,383.527,403.524,1725,1678.15,0,295,1
217,371.056,647.304,346,1678.15,0,295,1
218,355.969,427.764,301,1678.15,0,295,1
219,342.775,290.135,390,1678.15,0,295,1
220,334.755,282.035,315,1678.15,0,295,1
221,326.025,253.532,238,1678.15,0,295,1
222,318.722,202.838,214,1678.15,0,295,1
223,312.861,139.5,235,1678.15,0,295,1
224,308.738,82.5227,271,1678.15,0,295,1
225,305.991,62.7714,273,1678.15,0,295,1
226,304.238,48.1078,272,1678.15,0,295,1
227,302.709,19.5991,293,1678.15,0,295,1
228,302.337,-0.642,316,1678.15,0,295,1
229,302.338,0.0152,321,1678.15,0,295,1
230,302.338,0.0365,321,1678.15,0,295,1
231,302.336,0.0091,321,1678.15,0,295,1
232,302.336,0,321,1678.15,0,295,1
233,302.331,2.3187,320,511.364,0,90,1
234,301.784,31.5515,281,511.364,0,90,1
235,300.35,48.9902,242,511.364,0,90,1
236,298.4,58.4444,204,511.364,0,90,1
237,296.61,57.6989,185,511.364,0,90,1
238,295.078,56.074,170,511.364,0,90,1
239,293.437,56.2596,154,511.364,0,90,1
240,291.792,48.5642,145,511.364,0,90,1
241,290.487,40.2998,139,511.364,0,90,1
242,289.183,37.2569,132,511.364,0,90,1
243,288.235,31.728,126,511.364,0,90,1
244,287.227,22.715,126,511.364,0,90,1
245,286.495,17.5209,126,511.364,0,90,1
246,285.992,16.0268,124,511.364,0,90,1
247,285.345,18.6376,114,511.364,0,90,1
248,284.659,25.1402,98,511.364,0,90,1
249,283.926,33.0851,82,511.364,0,90,1
250,282.746,40.9388,58,511.364,0,90,1
251,281.282,44.432,37,511.364,0,90,1
252,279.941,40.5554,25,511.364,0,90,1
253,278.891,36.3958,20,511.364,0,90,1
254,277.86,27.7723,18,511.364,0,90,1
255,277.023,19.1336,21,511.364,0,90,1
256,276.47,13.2456,23,511.364,0,90,1
257,276.145,8.6144,25,511.364,0,90,1
258,275.849,5.2611,27,511.364,0,90,1
259,275.724,3.3745,28,511.364,0,90,1
260,275.617,2.9729,28,511.364,0,90,1
261,275.487,2.4952,27,511.364,0,90,1
262,275.424,1.6371,28,511.364,0,90,1
263,275.389,0.3499,28,511.364,0,90,1
264,275.383,0.1308,29,511.364,0,90,1
265,275.379,0.0852,29,511.364,0,90,1
266,275.377,0.0578,29,511.364,0,90,1
267,275.375,0.0396,29,511.364,0,90,1
268,275.374,0.0456,29,511.364,0,90,1
269,275.373,0.0396,29,511.364,0,90,1
270,275.371,0.0426,29,511.364,0,90,1
271,275.37,0.0335,29,511.364,0,90,1
272,275.369,0.0274,29,511.364,0,90,1
273,275.368,0.0304,29,511.364,0,90,1
274,275.367,0.0122,29,511.364,0,90,1
275,275.367,0.0213,29,511.364,0,90,1
276,275.366,0.0091,29,511.364,0,90,1
277,275.365,0.0213,29,511.364,0,90,1
278,275.364,0.0122,29,511.364,0,90,1
279,275.364,0.0122,29,511.364,0,90,1
280,275.363,0.003,29,511.364,0,90,1
281,275.362,0.0183,29,511.364,0,90,1
282,275.362,0.0213,29,511.364,0,90,1
283,275.362,0,29,511.364,0,90,1
284,275.361,0.0152,29,511.364,0,90,1
285,275.361,0.0061,29,511.364,0,90,1
286,275.36,0.0091,29,511.364,0,90,1
287,275.36,0.003,29,511.364,0,90,1
288,275.36,0.0122,29,511.364,0,90,1
289,275.359,0.0122,29,511.364,0,90,1
290,275.359,0.0243,29,511.364,0,90,1
291,275.359,0.0091,29,511.364,0,90,1
292,275.358,0.0152,29,511.364,0,90,1
293,275.358,0,29,511.364,0,90,1
294,275.358,0.0183,29,511.364,0,90,1
295,275.358,-0.003,29,511.364,0,90,1
296,275.357,0.0152,29,511.364,0,90,1
297,275.357,0.0122,29,511.364,0,90,1
298,275.357,0,29,511.364,0,90,1
299,275.357,0.0122,29,511.364,0,90,1
300,275.356,0.0091,29,511.364,0,90,1
301,275.356,0.0152,29,511.364,0,90,1
302,275.356,0.003,29,511.364,0,90,1
303,275.356,0.0122,29,511.364,0,90,1
304,275.355,0.0183,29,511.364,0,90,1
305,275.355,-0.003,29,511.364,0,90,1
306,275.355,0.0061,29,511.364,0,90,1
307,275.355,0,29,511.364,0,90,1
308,275.354,0.0061,29,511.364,0,90,1
309,275.354,0.0091,29,511.364,0,90,1
310,275.354,0.003,29,511.364,0,90,1
311,275.354,0.0152,29,511.364,0,90,1
312,275.354,0.003,29,511.364,0,90,1
313,275.353,0.0122,29,511.364,0,90,1
314,275.353,0,29,511.364,0,90,1
315,275.353,0.003,29,511.364,0,90,1
316,275.353,0.003,29,511.364,0,90,1
317,275.353,0.0091,29,511.364,0,90,1
318,275.352,0,29,511.364,0,90,1
319,275.352,0.003,29,511.364,0,90,1
320,275.352,0.0091,29,511.364,0,90,1
321,275.352,0.0152,29,511.364,0,90,1
322,275.351,0.0061,29,511.364,0,90,1
323,275.351,0.0061,29,511.364,0,90,1
324,275.351,0.0152,29,511.364,0,90,1
325,275.351,0.003,29,511.364,0,90,1
326,275.351,0.003,29,511.364,0,90,1
327,275.35,0.0091,29,511.364,0,90,1
328,275.35,0.003,29,511.364,0,90,1
329,275.35,0.003,29,511.364,0,90,1
330,275.35,0.003,29,511.364,0,90,1
331,275.349,-0.0061,29,511.364,0,90,1
332,275.349,0.0183,29,511.364,0,90,1
333,275.349,-0.0061,29,511.364,0,90,1
334,275.349,0.0122,29,511.364,0,90,1
335,275.349,0.0122,29,511.364,0,90,1
336,275.349,0.0122,29,511.364,0,90,1
337,275.348,0.0061,29,511.364,0,90,1
338,275.348,0.0091,29,511.364,0,90,1
339,275.348,0,29,511.364,0,90,1
340,275.348,-0.003,29,511.364,0,90,1
341,275.348,0.0061,29,511.364,0,90,1
342,275.348,0,29,511.364,0,90,1
343,275.348,0.0061,29,511.364,0,90,1
344,275.347,0,29,511.364,0,90,1
345,275.347,0.003,29,511.364,0,90,1
346,275.347,0,29,511.364,0,90,1
347,275.347,0.0061,29,511.364,0,90,1
348,275.347,0,29,511.364,0,90,1
349,275.347,0.0061,29,511.364,0,90,1
350,275.346,0.003,29,511.364,0,90,1
351,275.346,0.0061,29,511.364,0,90,1
352,275.345,-0.003,29,511.364,0,90,1
353,275.345,0,29,511.364,0,90,1
354,275.345,-0.0061,29,511.364,0,90,1
355,275.345,0.003,29,511.364,0,90,1
356,275.345,0.0091,29,511.364,0,90,1
357,275.345,0,29,511.364,0,90,1
358,275.345,0.0183,29,511.364,0,90,1
359,275.345,0.003,29,511.364,0,90,1
360,275.345,-0.003,29,511.364,0,90,1
361,275.345,0.003,29,511.364,0,90,1
362,275.345,-0.0091,29,511.364,0,90,1
363,275.345,-0.0091,29,511.364,0,90,1
364,275.345,-0.003,29,511.364,0,90,1
365,275.345,-0.0061,29,511.364,0,90,1
366,275.345,-0.0183,29,511.364,0,90,1
367,275.346,-0.003,29,511.364,0,90,1
368,275.346,-0.0122,29,511.364,0,90,1
369,275.346,-0.0122,29,511.364,0,90,1
370,275.346,0,29,511.364,0,90,1
371,275.346,-0.0152,29,511.364,0,90,1
372,275.345,0.0091,29,511.364,0,90,1
373,275.345,0.003,29,511.364,0,90,1
374,275.345,-0.0061,29,511.364,0,90,1
375,275.347,-0.0274,29,511.364,0,90,1
376,275.348,0.0061,29,511.364,0,90,1
377,275.348,0,29,511.364,0,90,1
378,275.346,0,29,511.364,0,90,1
379,275.344,0,29,511.364,0,90,1
380,275.344,0.003,29,511.364,0,90,1
381,275.344,0.0061,29,511.364,0,90,1
382,275.344,0.0091,29,511.364,0,90,1
383,275.344,0,29,511.364,0,90,1
384,275.344,-0.0061,29,511.364,0,90,1
385,275.344,-0.0061,29,511.364,0,90,1
386,275.344,0,29,511.364,0,90,1
387,275.344,0.0152,29,511.364,0,90,1
388,275.343,0.003,29,511.364,0,90,1
389,275.343,0.0061,29,511.364,0,90,1
390,275.343,0.0122,29,511.364,0,90,1
391,275.343,-0.0061,29,511.364,0,90,1
392,275.343,0.0061,29,511.364,0,90,1
393,275.343,0.0061,29,511.364,0,90,1
394,275.343,0.0122,29,511.364,0,90,1
395,275.343,0,29,511.364,0,90,1
396,275.343,0,29,511.364,0,90,1
397,275.343,0.003,29,511.364,0,90,1
398,275.343,-0.0061,29,511.364,0,90,1
399,275.343,0.0091,29,511.364,0,90,1
400,275.343,0,29,511.364,0,90,1
401,275.342,0.0061,29,511.364,0,90,1
402,275.342,-0.0091,29,511.364,0,90,1
403,275.342,0,29,511.364,0,90,1
404,275.342,0.0091,29,511.364,0,90,1
405,275.342,-0.003,29,511.364,0,90,1
406,275.342,-0.003,29,511.364,0,90,1
407,275.342,0,29,511.364,0,90,1
408,275.342,0.0061,29,511.364,0,90,1
409,275.342,0.0122,29,511.364,0,90,1
410,275.342,0,29,511.364,0,90,1
411,275.342,0.003,29,511.364,0,90,1
412,275.342,0.0061,29,511.364,0,90,1
413,275.342,-0.003,29,511.364,0,90,1
414,275.342,-0.003,29,511.364,0,90,1
415,275.342,-0.003,29,511.364,0,90,1
416,275.341,0.003,29,511.364,0,90,1
417,275.341,0.0122,29,511.364,0,90,1
418,275.341,-0.0091,29,511.364,0,90,1
419,275.341,-0.003,29,511.364,0,90,1
420,275.341,0,29,511.364,0,90,1
421,275.341,0.003,29,511.364,0,90,1
422,275.341,0.0091,29,511.364,0,90,1
423,275.341,-0.003,29,511.364,0,90,1
424,275.341,0.0061,29,511.364,0,90,1
425,275.341,0.0061,29,511.364,0,90,1
426,275.341,0,29,511.364,0,90,1
427,275.341,0,29,511.364,0,90,1
428,275.341,-0.003,29,511.364,0,90,1
429,275.341,0,29,511.364,0,90,1
430,275.341,-0.0152,29,511.364,0,90,1
431,275.341,0.0122,29,511.364,0,90,1
432,275.341,-0.003,29,511.364,0,90,1
433,275.341,0.003,29,511.364,0,90,1
434,275.341,0.0061,29,511.364,0,90,1
435,275.34,0.0091,29,511.364,0,90,1
436,275.34,0,29,511.364,0,90,1
437,275.34,0,29,511.364,0,90,1
438,275.34,0.0122,29,511.364,0,90,1
439,275.34,0,29,511.364,0,90,1
440,275.34,-0.003,29,511.364,0,90,1
441,275.34,0,29,511.364,0,90,1
442,275.34,0.0152,29,511.364,0,90,1
443,275.34,0.0061,29,511.364,0,90,1
444,275.34,0.0061,29,511.364,0,90,1
445,275.34,0.003,29,511.364,0,90,1
446,275.34,-0.0061,29,511.364,0,90,1
447,275.34,0,29,511.364,0,90,1
448,275.34,-0.0061,29,511.364,0,90,1
449,275.34,-0.0061,29,511.364,0,90,1
450,275.34,-0.0061,29,511.364,0,90,1
451,275.34,0.003,29,511.364,0,90,1
452,275.34,0,29,511.364,0,90,1
453,275.34,0.0091,29,511.364,0,90,1
454,275.339,-0.0061,29,511.364,0,90,1
455,275.339,-0.0091,29,511.364,0,90,1
456,275.339,-0.0091,29,511.364,0,90,1
457,275.339,0,29,511.364,0,90,1
458,275.339,0.0061,29,511.364,0,90,1
459,275.339,0.0091,29,511.364,0,90,1
460,275.339,0.0183,28,511.364,0,90,1
461,275.339,-0.003,29,511.364,0,90,1
462,275.339,-0.003,29,511.364,0,90,1
463,275.339,-0.0122,29,511.364,0,90,1
464,275.339,0.003,29,511.364,0,90,1
465,275.339,0,29,511.364,0,90,1
466,275.339,-0.0091,29,511.364,0,90,1
467,275.34,0.4929,28,511.364,0,90,1
468,275.337,-0.003,29,511.364,0,90,1
469,275.337,0.003,29,511.364,0,90,1
470,275.337,0.0122,28,511.364,0,90,1
471,275.337,0.0122,29,511.364,0,90,1
472,275.337,0.0061,29,511.364,0,90,1
473,275.337,0,28,511.364,0,90,1
474,275.337,0.003,29,511.364,0,90,1
475,275.337,0,29,511.364,0,90,1
476,275.337,0.0061,29,511.364,0,90,1
477,275.337,0.0122,29,511.364,0,90,1
478,275.337,0,29,511.364,0,90,1
479,275.337,0,29,511.364,0,90,1
480,275.337,0,28,511.364,0,90,1
481,275.337,0.003,29,511.364,0,90,1
482,275.337,0.0091,29,511.364,0,90,1
483,275.336,-0.003,29,511.364,0,90,1
484,275.336,-0.003,29,511.364,0,90,1
485,275.336,0.003,29,511.364,0,90,1
486,275.336,0.0091,29,511.364,0,90,1
487,275.336,-0.0061,29,511.364,0,90,1
488,275.336,0,29,511.364,0,90,1
489,275.336,-0.003,29,511.364,0,90,1
490,275.336,0,28,511.364,0,90,1
491,275.336,0,29,511.364,0,90,1
492,275.336,-0.003,29,511.364,0,90,1
493,275.336,0,28,511.364,0,90,1
494,275.336,0.003,29,511.364,0,90,1
495,275.336,-0.0061,29,511.364,0,90,1
496,275.336,-0.0061,29,511.364,0,90,1
497,275.336,-0.0091,28,511.364,0,90,1
498,275.336,0.003,29,511.364,0,90,1
499,275.337,0.0091,29,511.364,0,90,1
500,275.337,0.0061,29,511.364,0,90,1
501,275.337,0,29,511.364,0,90,1
502,275.337,-0.0061,28,511.364,0,90,1
503,275.337,0.003,29,511.364,0,90,1
504,275.337,0.0213,29,511.364,0,90,1
505,275.337,-0.0213,29,511.364,0,90,1
506,275.337,-0.0213,29,511.364,0,90,1
507,275.338,-0.0274,29,511.364,0,90,1
508,275.339,-0.1004,29,511.364,0,90,1
509,275.343,-0.429,29,511.364,0,90,1
510,275.125,79.3885,470,511.364,0,90,1
511,268.798,343.336,460,511.364,0,90,1
512,259.479,430.731,254,511.364,0,90,1
513,248.884,89.0466,-33,511.364,0,90,1
514,247.774,-7.3516,114,511.364,0,90,1
515,247.992,0.0243,112,511.364,0,90,1
516,247.996,-1.3054,111,511.364,0,90,1
517,248.132,-11.8459,123,511.364,0,90,1
518,248.581,-6.4691,127,511.364,0,90,1
519,248.722,0.1369,118,511.364,0,90,1
520,248.705,3.0885,115,511.364,0,90,1
521,248.54,12.4119,103,511.364,0,90,1
522,247.976,21.6987,85,511.364,0,90,1
523,247.389,25.8583,73,511.364,0,90,1
524,246.666,24.6899,66,511.364,0,90,1
525,245.942,17.0857,67,511.364,0,90,1
526,245.557,9.1469,72,511.364,0,90,1
527,245.292,5.5472,76,511.364,0,90,1
528,245.083,9.2716,71,511.364,0,90,1
529,244.818,13.3065,62,511.364,0,90,1
530,244.423,16.3463,54,511.364,0,90,1
531,243.938,16.0755,49,511.364,0,90,1
532,243.492,0.9585,59,511.364,0,90,1
533,242.529,142.148,502,511.364,0,90,1
534,235.969,334.901,489,511.364,0,90,1
535,224,375.959,235,511.364,0,90,1
536,212.34,50.8494,101,511.364,0,90,1
537,210.263,28.7156,128,511.364,0,90,1
538,209.3,14.6849,134,511.364,0,90,1
539,208.555,11.0274,135,511.364,0,90,1
540,208.18,14.1494,126,511.364,0,90,1
541,207.623,16.8758,119,511.364,0,90,1
542,207.086,20.4511,109,511.364,0,90,1
543,206.412,23.138,99,511.364,0,90,1
544,205.495,26.3117,86,511.364,0,90,1
