cnt,pos,speed,DTorque,STorque,Force,Dir
1,83.07,-75.91,426.00,0,74.98,-1
2,83.15,-75.11,427.00,0,75.15,-1
3,83.22,-74.67,427.00,0,75.15,-1
4,83.30,-74.47,429.00,0,75.50,-1
5,83.37,-73.37,433.00,0,76.21,-1
6,83.45,-72.59,433.00,0,76.21,-1
7,83.59,-72.04,433.00,0,76.21,-1
8,83.66,-71.98,433.00,0,76.21,-1
9,83.74,-71.88,435.00,0,76.56,-1
10,83.81,-71.59,438.00,0,77.09,-1
11,83.88,-71.01,440.00,0,77.44,-1
12,83.95,-70.04,442.00,0,77.79,-1
13,84.02,-69.51,443.00,0,77.97,-1
14,84.09,-69.08,443.00,0,77.97,-1
15,84.15,-68.57,444.00,0,78.14,-1
16,84.22,-68.09,446.00,0,78.50,-1
17,84.29,-67.28,448.00,0,78.85,-1
18,84.36,-66.27,448.00,0,78.85,-1
19,84.42,-65.28,448.00,0,78.85,-1
20,84.49,-65.11,448.00,0,78.85,-1
21,84.55,-64.89,450.00,0,79.20,-1
22,84.62,-64.66,451.00,0,79.38,-1
23,84.68,-64.12,454.00,0,79.90,-1
24,84.74,-62.91,456.00,0,80.26,-1
25,84.81,-62.13,456.00,0,80.26,-1
26,84.87,-61.06,457.00,0,80.43,-1
27,84.93,-60.53,457.00,0,80.43,-1
28,84.99,-59.94,458.00,0,80.61,-1
29,85.05,-59.35,459.00,0,80.78,-1
30,85.10,-58.46,460.00,0,80.96,-1
31,85.16,-57.13,461.00,0,81.14,-1
32,85.22,-55.90,461.00,0,81.14,-1
33,85.27,-55.34,461.00,0,81.14,-1
34,85.33,-54.69,462.00,0,81.31,-1
35,85.44,-54.43,463.00,0,81.49,-1
36,85.49,-54.23,465.00,0,81.84,-1
37,85.55,-53.66,466.00,0,82.02,-1
38,85.60,-52.70,468.00,0,82.37,-1
39,85.65,-51.71,468.00,0,82.37,-1
40,85.70,-51.00,469.00,0,82.54,-1
41,85.75,-50.46,469.00,0,82.54,-1
42,85.80,-50.17,470.00,0,82.72,-1
43,85.85,-49.84,471.00,0,82.90,-1
44,85.90,-49.45,472.00,0,83.07,-1
45,85.95,-48.75,473.00,0,83.25,-1
46,86.00,-47.77,473.00,0,83.25,-1
47,86.04,-46.83,474.00,0,83.42,-1
48,86.09,-45.95,474.00,0,83.42,-1
49,86.14,-45.71,474.00,0,83.42,-1
50,86.23,-45.73,475.00,0,83.60,-1
51,86.27,-45.92,476.00,0,83.78,-1
52,86.32,-46.00,478.00,0,84.13,-1
53,86.36,-45.74,479.00,0,84.30,-1
54,86.41,-45.38,481.00,0,84.66,-1
55,86.45,-44.69,482.00,0,84.83,-1
56,86.50,-43.76,483.00,0,85.01,-1
57,86.54,-43.27,483.00,0,85.01,-1
58,86.58,-42.81,484.00,0,85.18,-1
59,86.67,-42.47,485.00,0,85.36,-1
60,86.71,-42.20,486.00,0,85.54,-1
61,86.75,-42.03,487.00,0,85.71,-1
62,86.80,-40.99,487.00,0,85.71,-1
63,86.84,-40.08,488.00,0,85.89,-1
64,86.87,-39.16,488.00,0,85.89,-1
65,86.91,-37.88,488.00,0,85.89,-1
66,86.95,-37.41,488.00,0,85.89,-1
67,86.99,-36.60,488.00,0,85.89,-1
68,87.02,-36.54,488.00,0,85.89,-1
69,87.06,-36.29,489.00,0,86.06,-1
70,87.13,-36.21,490.00,0,86.24,-1
71,87.13,-36.21,491.00,0,86.42,-1
72,87.20,-35.64,492.00,0,86.59,-1
73,87.24,-34.70,493.00,0,86.77,-1
74,87.27,-34.03,494.00,0,86.94,-1
75,87.31,-32.96,495.00,0,87.12,-1
76,87.34,-31.81,495.00,0,87.12,-1
77,87.37,-31.15,495.00,0,87.12,-1
78,87.40,-30.38,495.00,0,87.12,-1
79,87.43,-29.71,495.00,0,87.12,-1
80,87.46,-29.31,495.00,0,87.12,-1
81,87.49,-28.82,495.00,0,87.12,-1
82,87.52,-28.67,495.00,0,87.12,-1
83,87.57,-27.78,496.00,0,87.30,-1
84,87.57,-27.12,496.00,0,87.30,-1
85,87.62,-26.25,496.00,0,87.30,-1
86,87.65,-25.26,496.00,0,87.30,-1
87,87.67,-24.07,496.00,0,87.30,-1
88,87.70,-22.86,496.00,0,87.30,-1
89,87.72,-21.67,496.00,0,87.30,-1
90,87.74,-20.53,495.00,0,87.12,-1
91,87.76,-19.53,495.00,0,87.12,-1
92,87.78,-18.83,494.00,0,86.94,-1
93,87.80,-18.04,494.00,0,86.94,-1
94,87.81,-17.54,494.00,0,86.94,-1
95,87.83,-17.20,493.00,0,86.77,-1
96,87.85,-17.09,493.00,0,86.77,-1
97,87.86,-16.91,493.00,0,86.77,-1
98,87.88,-16.92,493.00,0,86.77,-1
99,87.90,-17.17,494.00,0,86.94,-1
100,87.92,-17.18,494.00,0,86.94,-1
101,87.93,-17.40,494.00,0,86.94,-1
102,87.95,-17.84,495.00,0,87.12,-1
103,87.97,-17.81,495.00,0,87.12,-1
104,87.99,-18.06,496.00,0,87.30,-1
105,88.00,-18.18,496.00,0,87.30,-1
106,88.02,-18.24,497.00,0,87.47,-1
107,88.04,-17.93,498.00,0,87.65,-1
108,88.06,-17.72,498.00,0,87.65,-1
109,88.08,-17.64,499.00,0,87.82,-1
110,88.09,-17.04,499.00,0,87.82,-1
111,88.11,-16.60,499.00,0,87.82,-1
112,88.13,-16.21,499.00,0,87.82,-1
113,88.14,-15.58,499.00,0,87.82,-1
114,88.16,-15.08,499.00,0,87.82,-1
115,88.17,-14.76,499.00,0,87.82,-1
116,88.19,-14.22,499.00,0,87.82,-1
117,88.20,-14.15,499.00,0,87.82,-1
118,88.21,-13.77,499.00,0,87.82,-1
119,88.23,-13.73,499.00,0,87.82,-1
120,88.24,-13.71,499.00,0,87.82,-1
121,88.25,-13.92,499.00,0,87.82,-1
122,88.28,-14.03,499.00,0,87.82,-1
123,88.30,-14.47,499.00,0,87.82,-1
124,88.31,-14.47,500.00,0,88.00,-1
125,88.33,-14.87,500.00,0,88.00,-1
126,88.34,-15.17,500.00,0,88.00,-1
127,88.36,-15.42,501.00,0,88.18,-1
128,88.37,-15.89,501.00,0,88.18,-1
129,88.39,-15.91,501.00,0,88.18,-1
130,88.41,-16.14,501.00,0,88.18,-1
131,88.42,-16.25,501.00,0,88.18,-1
132,88.44,-16.12,502.00,0,88.35,-1
133,88.45,-16.03,502.00,0,88.35,-1
134,88.47,-15.73,502.00,0,88.35,-1
135,88.48,-15.33,502.00,0,88.35,-1
136,88.50,-15.00,502.00,0,88.35,-1
137,88.53,-13.75,501.00,0,88.18,-1
138,88.54,-13.20,501.00,0,88.18,-1
139,88.55,-12.59,501.00,0,88.18,-1
140,88.57,-11.96,500.00,0,88.00,-1
141,88.58,-11.45,499.00,0,87.82,-1
142,88.59,-11.05,499.00,0,87.82,-1
143,88.60,-10.78,499.00,0,87.82,-1
144,88.61,-10.27,498.00,0,87.65,-1
145,88.62,-10.35,498.00,0,87.65,-1
146,88.63,-10.17,497.00,0,87.47,-1
147,88.65,-10.55,497.00,0,87.47,-1
148,88.66,-10.70,496.00,0,87.30,-1
149,88.67,-11.17,496.00,0,87.30,-1
150,88.68,-11.45,496.00,0,87.30,-1
151,88.70,-12.24,496.00,0,87.30,-1
152,88.71,-12.62,496.00,0,87.30,-1
153,88.72,-13.50,496.00,0,87.30,-1
154,88.74,-14.11,497.00,0,87.47,-1
155,88.75,-15.00,497.00,0,87.47,-1
156,88.77,-15.80,498.00,0,87.65,-1
157,88.78,-16.59,498.00,0,87.65,-1
158,88.80,-17.62,499.00,0,87.82,-1
159,88.82,-18.40,500.00,0,88.00,-1
160,88.86,-19.71,500.00,0,88.00,-1
161,88.88,-20.31,501.00,0,88.18,-1
162,88.90,-20.76,502.00,0,88.35,-1
163,88.92,-20.95,502.00,0,88.35,-1
164,88.94,-21.00,502.00,0,88.35,-1
165,88.96,-21.10,502.00,0,88.35,-1
166,88.98,-21.00,503.00,0,88.53,-1
167,89.00,-20.90,503.00,0,88.53,-1
168,89.03,-20.96,503.00,0,88.53,-1
169,89.05,-21.04,502.00,0,88.35,-1
170,89.07,-21.07,502.00,0,88.35,-1
171,89.09,-21.42,502.00,0,88.35,-1
172,89.11,-21.80,502.00,0,88.35,-1
173,89.13,-22.19,502.00,0,88.35,-1
174,89.16,-22.78,502.00,0,88.35,-1
175,89.18,-24.00,502.00,0,88.35,-1
176,89.23,-24.62,502.00,0,88.35,-1
177,89.25,-25.17,502.00,0,88.35,-1
178,89.28,-25.58,502.00,0,88.35,-1
179,89.30,-25.82,502.00,0,88.35,-1
180,89.33,-25.90,502.00,0,88.35,-1
181,89.36,-25.89,502.00,0,88.35,-1
182,89.38,-25.52,502.00,0,88.35,-1
183,89.41,-25.28,501.00,0,88.18,-1
184,89.46,-24.74,500.00,0,88.00,-1
185,89.48,-24.64,500.00,0,88.00,-1
186,89.51,-24.80,499.00,0,87.82,-1
187,89.53,-25.11,498.00,0,87.65,-1
188,89.56,-25.62,498.00,0,87.65,-1
189,89.58,-26.20,498.00,0,87.65,-1
190,89.61,-26.99,498.00,0,87.65,-1
191,89.64,-27.77,498.00,0,87.65,-1
192,89.67,-29.34,498.00,0,87.65,-1
193,89.70,-29.60,498.00,0,87.65,-1
194,89.75,-30.14,499.00,0,87.82,-1
195,89.79,-30.35,499.00,0,87.82,-1
196,89.82,-30.41,499.00,0,87.82,-1
197,89.85,-30.29,499.00,0,87.82,-1
198,89.88,-30.12,499.00,0,87.82,-1
199,89.91,-30.38,498.00,0,87.65,-1
200,89.94,-30.63,498.00,0,87.65,-1
201,89.97,-31.17,498.00,0,87.65,-1
202,90.00,-31.71,497.00,0,87.47,-1
203,90.03,-32.52,497.00,0,87.47,-1
204,90.07,-33.43,497.00,0,87.47,-1
205,90.10,-34.08,497.00,0,87.47,-1
206,90.13,-34.79,497.00,0,87.47,-1
207,90.17,-35.29,497.00,0,87.47,-1
208,90.21,-35.27,497.00,0,87.47,-1
209,90.24,-35.08,496.00,0,87.30,-1
210,90.31,-35.24,496.00,0,87.30,-1
211,90.35,-35.36,495.00,0,87.12,-1
212,90.38,-35.83,494.00,0,86.94,-1
213,90.42,-36.59,493.00,0,86.77,-1
214,90.46,-37.32,494.00,0,86.94,-1
215,90.49,-38.43,494.00,0,86.94,-1
216,90.53,-39.28,494.00,0,86.94,-1
217,90.57,-40.05,494.00,0,86.94,-1
218,90.61,-40.75,495.00,0,87.12,-1
219,90.66,-40.86,496.00,0,87.30,-1
220,90.70,-41.09,496.00,0,87.30,-1
221,90.74,-41.23,496.00,0,87.30,-1
222,90.78,-42.22,495.00,0,87.12,-1
223,90.82,-43.12,495.00,0,87.12,-1
224,90.86,-43.12,495.00,0,87.12,-1
225,90.91,-43.97,495.00,0,87.12,-1
226,90.95,-45.09,495.00,0,87.12,-1
227,91.05,-46.77,495.00,0,87.12,-1
228,91.05,-47.16,496.00,0,87.30,-1
229,91.09,-47.46,495.00,0,87.12,-1
230,91.19,-47.76,495.00,0,87.12,-1
231,91.24,-48.45,494.00,0,86.94,-1
232,91.29,-49.52,494.00,0,86.94,-1
233,91.34,-50.76,494.00,0,86.94,-1
234,91.39,-52.03,495.00,0,87.12,-1
235,91.44,-52.84,496.00,0,87.47,-1
236,91.50,-53.58,497.00,0,87.47,-1
237,91.55,-53.81,497.00,0,87.47,-1
238,91.60,-54.24,497.00,0,87.47,-1
239,91.71,-55.51,497.00,0,87.47,-1
240,91.77,-56.33,497.00,0,87.47,-1
241,91.83,-57.51,497.00,0,87.47,-1
242,91.89,-58.26,498.00,0,87.65,-1
243,91.95,-58.51,498.00,0,87.65,-1
244,92.00,-58.78,498.00,0,87.65,-1
245,92.06,-59.36,497.00,0,87.47,-1
246,92.12,-59.87,496.00,0,87.30,-1
247,92.18,-61.26,496.00,0,87.30,-1
248,92.25,-62.08,497.00,0,87.47,-1
249,92.31,-63.24,498.00,0,87.65,-1
250,92.37,-63.31,499.00,0,87.82,-1
251,92.44,-63.67,499.00,0,87.82,-1
252,92.50,-63.41,499.00,0,87.82,-1
253,92.56,-64.03,499.00,0,87.82,-1
254,92.63,-64.65,499.00,0,87.82,-1
255,92.69,-65.28,499.00,0,87.82,-1
256,92.83,-65.67,499.00,0,87.82,-1
257,92.83,-65.67,498.00,0,87.65,-1
258,92.89,-65.83,497.00,0,87.47,-1
259,92.96,-66.52,497.00,0,87.47,-1
260,93.03,-68.65,497.00,0,87.47,-1
261,93.09,-68.65,499.00,0,87.82,-1
262,93.16,-69.83,500.00,0,88.00,-1
263,93.23,-70.59,501.00,0,88.18,-1
264,93.30,-70.52,500.00,0,88.00,-1
265,93.45,-71.97,500.00,0,88.00,-1
266,93.45,-72.83,500.00,0,88.00,-1
267,93.59,-73.60,501.00,0,88.18,-1
268,93.67,-73.95,502.00,0,88.35,-1
269,93.74,-74.33,501.00,0,88.18,-1
270,93.82,-75.07,499.00,0,87.82,-1
271,93.89,-76.38,499.00,0,87.82,-1
272,93.97,-77.85,501.00,0,88.18,-1
273,94.05,-79.35,504.00,0,88.70,-1
274,94.13,-79.35,504.00,0,88.70,-1
275,94.21,-79.47,503.00,0,88.53,-1
276,94.37,-81.07,503.00,0,88.53,-1
277,94.45,-81.68,505.00,0,88.88,-1
278,94.53,-81.60,505.00,0,88.88,-1
279,94.62,-81.53,504.00,0,88.70,-1
280,94.70,-82.16,502.00,0,88.35,-1
281,94.78,-83.13,502.00,0,88.35,-1
282,94.86,-83.54,504.00,0,88.70,-1
283,94.95,-84.26,506.00,0,89.06,-1
284,95.03,-83.89,506.00,0,89.06,-1
285,95.12,-84.04,505.00,0,88.88,-1
286,95.20,-84.56,505.00,0,88.88,-1
287,95.29,-84.42,506.00,0,89.06,-1
288,95.37,-84.17,504.00,0,88.70,-1
289,95.45,-84.07,502.00,0,88.35,-1
290,95.62,-84.99,502.00,0,88.35,-1
291,95.71,-85.52,503.00,0,88.53,-1
292,95.79,-85.82,504.00,0,88.70,-1
293,95.88,-85.93,504.00,0,88.70,-1
294,95.97,-86.23,503.00,0,88.53,-1
295,96.05,-86.85,503.00,0,88.53,-1
296,96.14,-87.37,504.00,0,88.70,-1
297,96.23,-87.43,504.00,0,88.70,-1
298,96.32,-87.32,502.00,0,88.35,-1
299,96.40,-87.87,500.00,0,88.00,-1
300,96.49,-88.79,500.00,0,88.00,-1
301,96.58,-89.57,503.00,0,88.53,-1
302,96.67,-90.10,503.00,0,88.53,-1
303,96.85,-90.85,502.00,0,88.35,-1
304,96.85,-91.58,502.00,0,88.35,-1
305,97.04,-91.76,503.00,0,88.53,-1
306,97.13,-91.83,502.00,0,88.35,-1
307,97.22,-91.99,500.00,0,88.00,-1
308,97.31,-92.59,499.00,0,87.82,-1
309,97.41,-93.27,501.00,0,88.18,-1
310,97.50,-93.81,503.00,0,88.53,-1
311,97.59,-93.80,502.00,0,88.35,-1
312,97.69,-94.09,501.00,0,88.18,-1
313,97.78,-94.65,501.00,0,88.18,-1
314,97.88,-95.11,502.00,0,88.35,-1
315,97.97,-94.90,502.00,0,88.35,-1
316,98.07,-94.96,500.00,0,88.00,-1
317,98.16,-95.56,499.00,0,87.82,-1
318,98.26,-96.44,500.00,0,88.00,-1
319,98.36,-96.66,502.00,0,88.35,-1
320,98.45,-96.85,502.00,0,88.18,-1
321,98.55,-98.33,501.00,0,88.18,-1
322,98.65,-98.96,502.00,0,88.35,-1
323,98.75,-99.12,501.00,0,88.18,-1
324,98.95,-99.77,499.00,0,87.82,-1
325,99.05,-100.88,500.00,0,88.00,-1
326,99.15,-101.75,502.00,0,88.35,-1
327,99.25,-102.17,504.00,0,88.70,-1
328,99.35,-102.74,503.00,0,88.53,-1
329,99.46,-103.59,504.00,0,88.70,-1
330,99.56,-104.35,504.00,0,88.70,-1
331,99.77,-104.85,502.00,0,88.35,-1
332,99.88,-105.90,501.00,0,88.18,-1
333,99.98,-106.87,504.00,0,88.70,-1
334,100.09,-107.09,506.00,0,89.06,-1
335,100.20,-107.06,505.00,0,88.88,-1
336,100.31,-107.96,505.00,0,88.88,-1
337,100.42,-108.44,506.00,0,89.06,-1
338,100.63,-108.83,504.00,0,88.70,-1
339,100.74,-109.66,503.00,0,88.53,-1
340,100.85,-110.71,506.00,0,89.06,-1
341,100.96,-111.12,507.00,0,89.23,-1
342,101.08,-111.47,506.00,0,89.06,-1
343,101.19,-112.45,506.00,0,89.06,-1
344,101.30,-113.14,508.00,0,89.41,-1
345,101.41,-113.62,507.00,0,89.23,-1
346,101.53,-114.68,505.00,0,88.88,-1
347,101.65,-115.95,507.00,0,89.23,-1
348,101.76,-117.30,509.00,0,89.58,-1
349,101.88,-117.61,509.00,0,89.58,-1
350,102.00,-118.50,509.00,0,89.58,-1
351,102.12,-119.33,510.00,0,89.76,-1
352,102.24,-119.85,510.00,0,89.76,-1
353,102.36,-121.62,509.00,0,89.58,-1
354,102.48,-122.41,512.00,0,90.11,-1
355,102.72,-122.77,512.00,0,90.11,-1
356,102.85,-123.25,512.00,0,90.11,-1
357,102.97,-123.76,513.00,0,90.29,-1
358,103.10,-123.82,513.00,0,90.29,-1
359,103.22,-124.25,511.00,0,89.94,-1
360,103.35,-125.28,512.00,0,90.11,-1
361,103.47,-125.96,515.00,0,90.64,-1
362,103.60,-126.40,515.00,0,90.64,-1
363,103.72,-127.16,515.00,0,90.64,-1
364,103.85,-128.11,516.00,0,90.82,-1
365,104.11,-129.13,514.00,0,90.46,-1
366,104.24,-130.36,517.00,0,90.99,-1
367,104.37,-131.24,519.00,0,91.34,-1
368,104.50,-131.86,519.00,0,91.34,-1
369,104.64,-132.82,520.00,0,91.52,-1
370,104.77,-133.45,520.00,0,91.52,-1
371,104.90,-133.66,518.00,0,91.17,-1
372,105.04,-134.73,519.00,0,91.34,-1
373,105.17,-135.42,523.00,0,92.05,-1
374,105.31,-135.50,523.00,0,92.05,-1
375,105.45,-136.58,523.00,0,92.05,-1
376,105.58,-136.56,525.00,0,92.40,-1
377,105.72,-136.81,523.00,0,91.87,-1
378,105.86,-137.32,522.00,0,91.87,-1
379,106.13,-138.28,526.00,0,92.58,-1
380,106.13,-138.28,525.00,0,92.40,-1
381,106.41,-139.86,527.00,0,92.75,-1
382,106.55,-140.04,526.00,0,92.58,-1
383,106.69,-141.03,525.00,0,92.40,-1
384,106.84,-141.77,528.00,0,92.93,-1
385,106.98,-141.97,528.00,0,92.93,-1
386,107.12,-142.81,528.00,0,92.93,-1
387,107.26,-143.20,529.00,0,93.10,-1
388,107.41,-143.23,528.00,0,92.93,-1
389,107.55,-143.86,526.00,0,92.58,-1
390,107.69,-144.41,529.00,0,93.10,-1
391,107.84,-144.08,530.00,0,93.28,-1
392,108.13,-144.61,531.00,0,93.46,-1
393,108.13,-144.51,529.00,0,93.10,-1
394,108.42,-145.01,528.00,0,92.93,-1
395,108.56,-145.54,531.00,0,93.46,-1
396,108.71,-145.36,532.00,0,93.63,-1
397,108.85,-145.92,532.00,0,93.63,-1
398,109.00,-146.12,533.00,0,93.81,-1
399,109.15,-146.32,531.00,0,93.46,-1
400,109.29,-147.22,531.00,0,93.98,-1
401,109.44,-147.75,534.00,0,93.98,-1
402,109.59,-147.70,534.00,0,93.98,-1
403,109.74,-148.12,534.00,0,93.98,-1
404,109.89,-148.05,532.00,0,93.63,-1
405,110.18,-148.78,534.00,0,93.98,-1
406,110.33,-148.81,536.00,0,94.34,-1
407,110.48,-148.49,535.00,0,94.16,-1
408,110.63,-148.39,536.00,0,94.34,-1
409,110.78,-147.97,535.00,0,94.16,-1
410,110.92,-147.88,533.00,0,93.81,-1
411,111.07,-148.34,535.00,0,94.16,-1
412,111.22,-148.16,536.00,0,94.34,-1
413,111.37,-148.24,536.00,0,94.34,-1
414,111.52,-148.26,536.00,0,94.34,-1
415,111.66,-148.44,533.00,0,93.81,-1
416,111.81,-148.95,535.00,0,94.16,-1
417,111.96,-148.88,536.00,0,94.34,-1
418,112.26,-149.23,535.00,0,94.16,-1
419,112.41,-149.11,535.00,0,94.16,-1
420,112.56,-148.64,533.00,0,93.81,-1
421,112.71,-149.08,533.00,0,93.81,-1
422,112.86,-149.13,535.00,0,94.16,-1
423,113.00,-148.76,535.00,0,94.16,-1
424,113.15,-148.76,535.00,0,94.16,-1
425,113.30,-148.33,534.00,0,93.98,-1
426,113.45,-147.76,533.00,0,93.81,-1
427,113.60,-147.70,534.00,0,93.98,-1
428,113.75,-147.59,534.00,0,93.98,-1
429,114.04,-147.75,534.00,0,93.98,-1
430,114.19,-147.33,533.00,0,93.81,-1
431,114.34,-147.20,531.00,0,93.46,-1
432,114.48,-147.67,532.00,0,93.63,-1
433,114.63,-147.40,533.00,0,93.81,-1
434,114.78,-147.57,533.00,0,93.81,-1
435,114.93,-147.57,533.00,0,93.46,-1
436,115.07,-147.01,530.00,0,93.28,-1
437,115.22,-146.77,532.00,0,93.63,-1
438,115.37,-146.24,532.00,0,93.63,-1
439,115.51,-146.16,532.00,0,93.63,-1
440,115.66,-146.16,532.00,0,93.63,-1
441,115.80,-145.69,529.00,0,93.10,-1
442,116.10,-145.45,529.00,0,93.10,-1
443,116.24,-145.34,531.00,0,93.46,-1
444,116.39,-144.87,530.00,0,93.28,-1
445,116.53,-145.07,530.00,0,93.28,-1
446,116.68,-145.08,530.00,0,93.28,-1
447,116.82,-145.17,527.00,0,92.75,-1
448,116.97,-145.74,527.00,0,92.75,-1
449,117.11,-145.80,529.00,0,93.10,-1
450,117.26,-145.62,528.00,0,92.93,-1
451,117.40,-145.96,528.00,0,92.93,-1
452,117.55,-145.60,527.00,0,92.75,-1
453,117.70,-145.77,525.00,0,92.40,-1
454,117.84,-146.25,526.00,0,92.58,-1
455,117.99,-145.95,526.00,0,92.58,-1
456,118.13,-145.59,527.00,0,92.75,-1
457,118.42,-144.96,525.00,0,92.40,-1
458,118.57,-145.07,523.00,0,92.05,-1
459,118.71,-145.74,525.00,0,92.40,-1
460,118.86,-145.62,526.00,0,92.58,-1
461,119.01,-145.47,525.00,0,92.40,-1
462,119.15,-145.91,526.00,0,92.58,-1
463,119.30,-145.62,524.00,0,92.22,-1
464,119.44,-146.26,522.00,0,91.87,-1
465,119.59,-147.20,525.00,0,92.40,-1
466,119.74,-147.42,526.00,0,92.58,-1
467,119.89,-147.70,525.00,0,92.40,-1
468,120.03,-148.02,526.00,0,92.58,-1
469,120.18,-147.89,524.00,0,92.22,-1
470,120.33,-148.30,523.00,0,92.05,-1
471,120.48,-148.88,526.00,0,92.58,-1
472,120.63,-148.82,526.00,0,92.58,-1
473,120.78,-149.02,526.00,0,92.58,-1
474,120.93,-148.72,524.00,0,92.22,-1
475,121.07,-149.17,525.00,0,92.40,-1
476,121.37,-149.48,526.00,0,92.58,-1
477,121.52,-149.57,526.00,0,92.58,-1
478,121.67,-150.14,527.00,0,92.75,-1
479,121.82,-150.02,526.00,0,92.58,-1
480,121.97,-150.24,523.00,0,92.05,-1
481,122.12,-150.90,525.00,0,92.40,-1
482,122.27,-151.14,527.00,0,92.75,-1
483,122.43,-151.42,526.00,0,92.58,-1
484,122.58,-151.91,527.00,0,92.75,-1
485,122.73,-151.66,525.00,0,92.40,-1
486,122.88,-151.83,523.00,0,92.05,-1
487,123.03,-152.23,525.00,0,92.40,-1
488,123.19,-152.37,525.00,0,92.40,-1
489,123.49,-152.26,525.00,0,92.40,-1
490,123.64,-152.17,523.00,0,92.05,-1
491,123.79,-152.59,524.00,0,92.22,-1
492,123.95,-152.44,525.00,0,92.40,-1
493,124.10,-152.68,525.00,0,92.40,-1
494,124.25,-153.05,526.00,0,92.58,-1
495,124.41,-153.16,524.00,0,92.22,-1
496,124.56,-153.76,523.00,0,92.05,-1
497,124.71,-154.24,525.00,0,92.40,-1
498,124.87,-154.12,525.00,0,92.40,-1
499,125.02,-154.41,525.00,0,92.40,-1
500,125.18,-154.52,526.00,0,92.58,-1
501,125.33,-154.50,524.00,0,92.22,-1
502,125.49,-155.04,524.00,0,92.75,-1
503,125.64,-154.35,526.00,0,92.58,-1
504,125.80,-154.35,526.00,0,92.58,-1
505,125.95,-154.34,525.00,0,92.40,-1
506,126.26,-154.10,523.00,0,92.05,-1
507,126.41,-154.38,525.00,0,92.40,-1
508,126.57,-154.14,525.00,0,92.40,-1
509,126.72,-154.22,525.00,0,92.40,-1
510,126.88,-154.52,525.00,0,92.40,-1
511,127.03,-155.57,523.00,0,92.05,-1
512,127.19,-155.57,525.00,0,92.40,-1
513,127.50,-156.13,524.00,0,92.22,-1
514,127.65,-156.74,525.00,0,92.40,-1
515,127.81,-156.43,523.00,0,92.05,-1
516,127.97,-156.95,521.00,0,91.70,-1
517,128.13,-157.66,524.00,0,92.22,-1
518,128.28,-157.60,524.00,0,92.22,-1
519,128.44,-157.67,524.00,0,92.22,-1
520,128.60,-157.62,524.00,0,92.22,-1
521,128.76,-157.48,521.00,0,91.70,-1
522,128.91,-158.00,522.00,0,91.87,-1
523,129.07,-158.29,524.00,0,92.22,-1
524,129.23,-158.62,524.00,0,92.40,-1
525,129.39,-158.76,525.00,0,92.05,-1
526,129.55,-158.96,523.00,0,92.05,-1
527,129.71,-159.34,525.00,0,92.40,-1
528,129.87,-160.05,525.00,0,92.22,-1
529,130.03,-160.30,524.00,0,92.40,-1
530,130.19,-160.63,525.00,0,92.40,-1
531,130.35,-160.50,523.00,0,92.05,-1
532,130.67,-161.23,526.00,0,92.58,-1
533,130.83,-160.83,526.00,0,92.58,-1
534,130.99,-161.09,526.00,0,92.58,-1
535,131.15,-160.76,525.00,0,92.40,-1
536,131.31,-160.73,523.00,0,92.40,-1
537,131.48,-161.31,526.00,0,92.58,-1
538,131.80,-161.44,525.00,0,92.40,-1
539,131.96,-161.88,525.00,0,92.40,-1
540,132.12,-161.99,523.00,0,92.05,-1
541,132.29,-162.62,524.00,0,92.22,-1
542,132.45,-162.92,526.00,0,92.58,-1
543,132.61,-163.18,525.00,0,92.40,-1
544,132.77,-163.64,526.00,0,92.58,-1
545,132.94,-163.70,524.00,0,92.22,-1
546,133.10,-163.90,522.00,0,91.87,-1
547,133.27,-164.47,525.00,0,92.40,-1
548,133.43,-163.83,525.00,0,92.40,-1
549,133.60,-164.30,525.00,0,92.40,-1
550,133.76,-164.00,524.00,0,92.22,-1
551,133.92,-164.20,523.00,0,92.05,-1
552,134.09,-164.81,525.00,0,92.40,-1
553,134.25,-164.53,526.00,0,92.58,-1
554,134.42,-165.04,526.00,0,92.58,-1
555,134.58,-165.62,523.00,0,92.05,-1
556,134.75,-165.62,525.00,0,92.40,-1
557,134.92,-166.67,526.00,0,92.58,-1
558,135.08,-167.11,526.00,0,92.58,-1
559,135.25,-167.11,526.00,0,92.58,-1
560,135.58,-167.64,524.00,0,92.22,-1
