cnt,pos,speed,DTorque,STorque,Force,Dir
11876,23.82,-9.66,0.00,0,0.00,0
11877,23.83,-9.66,0.00,0,0.00,0
11878,23.84,-10.17,0.00,0,0.00,0
11879,23.85,-10.76,1.00,0,0.18,0
11880,23.86,-11.38,2.00,0,0.35,0
11881,23.87,-12.06,2.00,0,0.35,0
11882,23.88,-12.75,3.00,0,0.53,0
11883,23.90,-13.40,4.00,0,0.70,0
11884,23.91,-14.10,4.00,0,0.70,0
11885,23.93,-14.94,5.00,0,0.88,0
11886,23.94,-15.64,6.00,0,1.06,0
11887,23.96,-16.51,7.00,0,1.23,0
11888,23.98,-17.35,8.00,0,1.41,0
11889,23.99,-18.14,9.00,0,1.58,0
11890,24.01,-18.94,10.00,0,1.76,0
11891,24.03,-19.94,11.00,0,1.94,0
11892,24.05,-20.87,12.00,0,2.11,0
11893,24.08,-21.65,13.00,0,2.29,0
11894,24.10,-22.61,14.00,0,2.46,0
11895,24.12,-23.56,15.00,0,2.64,0
11896,24.15,-24.49,16.00,0,2.82,0
11897,24.17,-26.36,18.00,0,3.17,-1
11898,24.20,-26.36,19.00,0,3.34,-1
11899,24.23,-27.34,19.00,0,3.52,-1
11900,24.25,-28.35,22.00,0,3.87,-1
11901,24.28,-29.13,23.00,0,4.05,-1
11902,24.31,-30.14,23.00,0,4.05,-1
11903,24.34,-31.28,24.00,0,4.22,-1
11904,24.38,-32.33,25.00,0,4.40,-1
11905,24.41,-33.24,26.00,0,4.58,-1
11906,24.44,-34.45,28.00,0,4.93,-1
11907,24.48,-35.64,29.00,0,5.10,-1
11908,24.52,-36.51,30.00,0,5.28,-1
11909,24.56,-37.96,31.00,0,5.46,-1
11910,24.59,-38.91,33.00,0,5.81,-1
11911,24.63,-40.17,34.00,0,5.98,-1
11912,24.68,-41.34,36.00,0,6.34,-1
11913,24.72,-42.41,38.00,0,6.69,-1
11914,24.76,-43.54,39.00,0,6.86,-1
11915,24.81,-44.89,41.00,0,7.22,-1
11916,24.85,-46.20,43.00,0,7.57,-1
11917,24.90,-47.21,44.00,0,7.74,-1
11918,24.95,-48.59,46.00,0,8.10,-1
11919,25.00,-49.93,47.00,0,8.27,-1
11920,25.05,-51.22,49.00,0,8.62,-1
11921,25.10,-52.54,51.00,0,8.98,-1
11922,25.16,-53.61,53.00,0,9.33,-1
11923,25.21,-54.95,55.00,0,9.68,-1
11924,25.27,-56.37,58.00,0,10.21,-1
11925,25.32,-57.66,58.00,0,10.21,-1
11926,25.38,-60.33,61.00,0,10.74,-1
11927,25.44,-61.59,63.00,0,11.09,-1
11928,25.57,-62.92,66.00,0,11.62,-1
11929,25.63,-64.19,68.00,0,11.97,-1
11930,25.70,-65.48,70.00,0,12.32,-1
11931,25.76,-66.60,72.00,0,12.67,-1
11932,25.83,-68.03,74.00,0,13.02,-1
11933,25.90,-69.36,75.00,0,13.20,-1
11934,25.97,-70.54,78.00,0,13.73,-1
11935,26.04,-71.60,80.00,0,14.08,-1
11936,26.12,-72.77,82.00,0,14.43,-1
11937,26.19,-73.91,83.00,0,14.61,-1
11938,26.27,-75.08,84.00,0,15.14,-1
11939,26.34,-76.30,86.00,0,15.66,-1
11940,26.50,-78.41,91.00,0,16.02,-1
11941,26.58,-79.33,93.00,0,16.37,-1
11942,26.66,-80.20,94.00,0,16.54,-1
11943,26.74,-81.42,96.00,0,16.90,-1
11944,26.82,-82.41,98.00,0,17.25,-1
11945,26.90,-82.92,101.00,0,17.78,-1
11946,26.99,-83.87,102.00,0,17.95,-1
11947,27.07,-84.69,103.00,0,18.13,-1
11948,27.16,-85.21,103.00,0,18.13,-1
11949,27.24,-86.44,105.00,0,18.48,-1
11950,27.33,-86.92,108.00,0,19.01,-1
11951,27.42,-87.80,111.00,0,19.54,-1
11952,27.51,-88.09,112.00,0,20.06,-1
11953,27.60,-89.52,116.00,0,20.42,-1
11954,27.78,-90.17,118.00,0,20.77,-1
11955,27.87,-90.69,119.00,0,20.94,-1
11956,27.96,-91.10,119.00,0,20.94,-1
11957,28.05,-91.79,121.00,0,21.30,-1
11958,28.14,-92.36,123.00,0,21.65,-1
11959,28.23,-92.53,126.00,0,22.18,-1
11960,28.33,-92.89,127.00,0,22.35,-1
11961,28.42,-93.47,128.00,0,22.53,-1
11962,28.51,-93.75,130.00,0,22.88,-1
11963,28.61,-93.95,133.00,0,23.41,-1
11964,28.70,-94.09,134.00,0,23.58,-1
11965,28.80,-94.48,134.00,0,23.76,-1
11966,28.99,-94.85,137.00,0,24.11,-1
11967,28.99,-95.04,140.00,0,24.64,-1
11968,29.08,-94.99,141.00,0,24.82,-1
11969,29.27,-95.28,142.00,0,24.99,-1
11970,29.37,-95.33,144.00,0,25.34,-1
11971,29.46,-95.35,146.00,0,25.70,-1
11972,29.56,-95.03,146.00,0,25.70,-1
11973,29.65,-95.23,146.00,0,25.70,-1
11974,29.75,-95.25,147.00,0,25.87,-1
11975,29.84,-95.59,149.00,0,26.22,-1
11976,29.94,-95.57,152.00,0,26.75,-1
11977,30.03,-95.45,153.00,0,26.93,-1
11978,30.13,-95.51,153.00,0,26.93,-1
11979,30.23,-95.64,155.00,0,27.28,-1
11980,30.32,-95.49,157.00,0,27.63,-1
11981,30.42,-95.66,157.00,0,27.63,-1
11982,30.61,-95.86,158.00,0,27.81,-1
11983,30.70,-95.93,160.00,0,28.16,-1
11984,30.80,-96.15,162.00,0,28.51,-1
11985,30.90,-95.98,163.00,0,28.69,-1
11986,30.99,-96.22,164.00,0,28.86,-1
11987,31.09,-96.15,165.00,0,29.04,-1
11988,31.19,-96.24,167.00,0,29.39,-1
11989,31.28,-95.84,167.00,0,29.39,-1
11990,31.38,-95.82,167.00,0,29.39,-1
11991,31.47,-95.98,170.00,0,29.92,-1
11992,31.67,-95.96,172.00,0,30.27,-1
11993,31.67,-95.67,172.00,0,30.27,-1
11994,31.76,-95.59,173.00,0,30.45,-1
11995,31.95,-95.21,175.00,0,30.80,-1
11996,32.05,-95.05,176.00,0,30.98,-1
11997,32.14,-94.58,176.00,0,30.98,-1
11998,32.24,-94.59,175.00,0,30.80,-1
11999,32.33,-94.55,176.00,0,30.98,-1
12000,32.42,-94.35,179.00,0,31.50,-1
12001,32.52,-94.18,181.00,0,31.86,-1
12002,32.61,-93.97,181.00,0,31.86,-1
12003,32.71,-93.96,182.00,0,32.03,-1
12004,32.80,-93.77,184.00,0,32.38,-1
12005,32.89,-93.58,185.00,0,32.56,-1
12006,32.99,-93.34,184.00,0,32.38,-1
12007,33.08,-93.40,184.00,0,32.38,-1
12008,33.17,-93.33,185.00,0,32.56,-1
12009,33.27,-93.35,187.00,0,32.91,-1
12010,33.36,-93.31,189.00,0,33.26,-1
12011,33.45,-93.29,190.00,0,33.44,-1
12012,33.55,-93.07,191.00,0,33.62,-1
12013,33.64,-93.18,192.00,0,33.79,-1
12014,33.73,-93.06,193.00,0,33.97,-1
12015,33.83,-92.88,193.00,0,33.97,-1
12016,33.92,-92.53,193.00,0,33.97,-1
12017,34.01,-92.62,195.00,0,34.32,-1
12018,34.20,-92.64,198.00,0,34.85,-1
12019,34.29,-92.32,199.00,0,35.02,-1
12020,34.38,-92.37,199.00,0,35.02,-1
12021,34.47,-92.38,200.00,0,35.20,-1
12022,34.57,-91.99,201.00,0,35.38,-1
12023,34.66,-91.77,202.00,0,35.55,-1
12024,34.75,-91.83,201.00,0,35.38,-1
12025,34.84,-91.51,201.00,0,35.38,-1
12026,34.93,-91.63,203.00,0,35.73,-1
12027,35.02,-91.78,205.00,0,36.08,-1
12028,35.12,-91.44,206.00,0,36.26,-1
12029,35.21,-91.28,206.00,0,36.26,-1
12030,35.30,-91.78,207.00,0,36.43,-1
12031,35.39,-91.43,209.00,0,36.96,-1
12032,35.48,-91.15,210.00,0,36.78,-1
12033,35.66,-91.21,208.00,0,36.61,-1
12034,35.76,-91.26,209.00,0,36.78,-1
12035,35.85,-91.63,212.00,0,37.31,-1
12036,35.94,-91.21,213.00,0,37.49,-1
12037,36.03,-90.95,213.00,0,37.49,-1
12038,36.12,-91.33,214.00,0,37.66,-1
12039,36.21,-90.97,216.00,0,38.02,-1
12040,36.30,-90.89,217.00,0,38.19,-1
12041,36.39,-90.80,216.00,0,38.02,-1
12042,36.48,-90.42,215.00,0,37.84,-1
12043,36.57,-90.57,216.00,0,38.02,-1
12044,36.66,-90.56,218.00,0,38.37,-1
12045,36.76,-90.30,220.00,0,38.72,-1
12046,36.85,-90.18,220.00,0,38.72,-1
12047,36.94,-89.86,221.00,0,38.90,-1
12048,37.02,-89.76,222.00,0,39.07,-1
12049,37.20,-89.24,222.00,0,39.07,-1
12050,37.29,-89.30,222.00,0,39.07,-1
12051,37.38,-89.02,221.00,0,38.90,-1
12052,37.47,-89.19,223.00,0,39.25,-1
12053,37.56,-89.11,225.00,0,39.60,-1
12054,37.65,-88.79,226.00,0,39.78,-1
12055,37.74,-88.88,226.00,0,39.78,-1
12056,37.83,-88.50,226.00,0,39.78,-1
12057,37.92,-88.82,228.00,0,40.13,-1
12058,38.00,-88.44,229.00,0,40.30,-1
12059,38.09,-88.34,227.00,0,39.95,-1
12060,38.27,-88.43,227.00,0,39.95,-1
12061,38.36,-88.59,229.00,0,40.30,-1
12062,38.45,-88.49,231.00,0,40.66,-1
12063,38.53,-88.49,232.00,0,40.83,-1
12064,38.62,-88.10,232.00,0,40.83,-1
12065,38.71,-88.34,233.00,0,41.01,-1
12066,38.80,-87.97,234.00,0,41.18,-1
12067,38.89,-87.99,235.00,0,41.36,-1
12068,38.97,-87.37,233.00,0,41.01,-1
12069,39.06,-87.70,234.00,0,41.18,-1
12070,39.24,-87.77,236.00,0,41.54,-1
12071,39.32,-87.29,237.00,0,41.71,-1
12072,39.41,-87.17,237.00,0,41.71,-1
12073,39.50,-86.83,237.00,0,41.71,-1
12074,39.59,-86.82,238.00,0,41.89,-1
12075,39.67,-86.20,239.00,0,42.06,-1
12076,39.76,-86.07,239.00,0,42.06,-1
12077,39.84,-85.51,237.00,0,41.71,-1
12078,39.93,-85.60,238.00,0,41.89,-1
12079,40.01,-85.59,240.00,0,42.24,-1
12080,40.19,-85.33,241.00,0,42.42,-1
12081,40.27,-84.86,241.00,0,42.42,-1
12082,40.36,-84.99,241.00,0,42.42,-1
12083,40.44,-84.86,241.00,0,42.42,-1
12084,40.52,-84.60,242.00,0,42.59,-1
12085,40.61,-84.47,242.00,0,42.24,-1
12086,40.69,-84.05,240.00,0,42.24,-1
12087,40.86,-84.38,241.00,0,42.42,-1
12088,40.95,-84.63,242.00,0,42.59,-1
12089,41.03,-84.57,243.00,0,42.77,-1
12090,41.12,-84.12,243.00,0,42.77,-1
12091,41.20,-84.57,243.00,0,42.77,-1
12092,41.28,-84.35,244.00,0,42.94,-1
12093,41.37,-84.33,245.00,0,43.12,-1
12094,41.45,-84.16,245.00,0,43.12,-1
12095,41.54,-83.84,244.00,0,42.94,-1
12096,41.62,-83.86,243.00,0,42.77,-1
12097,41.70,-84.19,243.00,0,43.12,-1
12098,41.79,-83.92,245.00,0,43.12,-1
12099,41.87,-84.25,246.00,0,43.30,-1
12100,41.96,-83.80,246.00,0,43.30,-1
12101,42.12,-83.88,246.00,0,43.30,-1
12102,42.21,-83.68,247.00,0,43.47,-1
12103,42.29,-83.40,247.00,0,43.47,-1
12104,42.37,-83.17,245.00,0,43.12,-1
12105,42.46,-82.95,245.00,0,43.12,-1
12106,42.54,-83.15,245.00,0,43.30,-1
12107,42.62,-83.30,248.00,0,43.65,-1
12108,42.71,-83.08,248.00,0,43.65,-1
12109,42.87,-83.20,247.00,0,43.47,-1
12110,42.96,-83.16,247.00,0,43.47,-1
12111,43.04,-83.23,248.00,0,43.65,-1
12112,43.12,-83.28,249.00,0,43.82,-1
12113,43.21,-82.87,248.00,0,43.65,-1
12114,43.29,-83.05,246.00,0,43.30,-1
12115,43.37,-83.39,246.00,0,43.30,-1
12116,43.46,-83.43,247.00,0,43.47,-1
12117,43.54,-83.56,249.00,0,43.82,-1
12118,43.62,-83.56,249.00,0,43.82,-1
12119,43.71,-83.65,249.00,0,43.82,-1
12120,43.79,-83.86,250.00,0,44.00,-1
12121,43.87,-83.23,250.00,0,44.00,-1
12122,44.04,-83.55,249.00,0,43.82,-1
12123,44.12,-83.37,248.00,0,43.65,-1
12124,44.21,-83.16,248.00,0,43.65,-1
12125,44.29,-83.71,248.00,0,43.65,-1
12126,44.37,-83.50,250.00,0,44.00,-1
12127,44.46,-83.28,251.00,0,44.18,-1
12128,44.54,-83.20,250.00,0,44.00,-1
12129,44.62,-83.18,250.00,0,44.00,-1
12130,44.71,-83.29,250.00,0,44.18,-1
12131,44.79,-83.25,251.00,0,44.18,-1
12132,44.87,-82.97,250.00,0,43.82,-1
12133,44.96,-82.86,249.00,0,43.65,-1
12134,45.04,-83.11,249.00,0,43.82,-1
12135,45.12,-83.34,250.00,0,44.00,-1
12136,45.21,-83.39,251.00,0,44.18,-1
12137,45.37,-83.33,250.00,0,44.00,-1
12138,45.46,-83.50,250.00,0,44.00,-1
12139,45.54,-83.85,250.00,0,44.00,-1
12140,45.62,-84.08,251.00,0,44.18,-1
12141,45.71,-84.04,251.00,0,44.18,-1
12142,45.79,-84.25,249.00,0,43.65,-1
12143,45.88,-84.32,248.00,0,43.65,-1
12144,45.96,-85.25,250.00,0,44.00,-1
12145,46.13,-85.51,251.00,0,44.18,-1
12146,46.22,-85.55,251.00,0,44.18,-1
12147,46.30,-85.62,251.00,0,44.18,-1
12148,46.39,-86.13,251.00,0,44.18,-1
12149,46.48,-85.98,252.00,0,44.35,-1
12150,46.56,-86.29,251.00,0,44.18,-1
12151,46.65,-86.08,250.00,0,44.00,-1
12152,46.73,-86.64,249.00,0,43.82,-1
12153,46.82,-86.86,250.00,0,44.18,-1
12154,46.91,-87.10,251.00,0,44.35,-1
12155,47.08,-86.97,252.00,0,44.35,-1
12156,47.08,-86.98,251.00,0,44.18,-1
12157,47.26,-87.00,251.00,0,44.18,-1
12158,47.34,-86.88,252.00,0,44.35,-1
12159,47.43,-86.75,251.00,0,44.18,-1
12160,47.52,-86.73,250.00,0,44.00,-1
12161,47.60,-86.97,249.00,0,43.82,-1
12162,47.69,-87.30,250.00,0,44.00,-1
12163,47.78,-87.51,252.00,0,44.35,-1
12164,47.87,-87.40,251.00,0,44.18,-1
12165,47.95,-87.42,251.00,0,44.18,-1
12166,48.04,-87.56,252.00,0,44.35,-1
12167,48.22,-87.73,252.00,0,44.35,-1
12168,48.30,-87.74,251.00,0,44.18,-1
12169,48.30,-87.87,249.00,0,43.82,-1
12170,48.39,-88.50,249.00,0,43.82,-1
12171,48.57,-88.81,250.00,0,44.00,-1
12172,48.66,-89.33,252.00,0,44.35,-1
12173,48.75,-89.06,252.00,0,44.35,-1
12174,48.84,-89.47,252.00,0,44.35,-1
12175,48.93,-89.73,252.00,0,44.35,-1
12176,49.02,-89.79,253.00,0,44.53,-1
12177,49.11,-90.06,252.00,0,44.35,-1
12178,49.20,-89.69,251.00,0,44.18,-1
12179,49.29,-90.21,250.00,0,44.00,-1
12180,49.38,-90.56,251.00,0,44.18,-1
12181,49.47,-90.83,252.00,0,44.35,-1
12182,49.56,-90.88,253.00,0,44.53,-1
12183,49.65,-91.09,252.00,0,44.35,-1
12184,49.74,-91.21,253.00,0,44.53,-1
12185,49.83,-91.51,253.00,0,44.53,-1
12186,50.02,-91.14,252.00,0,44.35,-1
12187,50.11,-91.44,250.00,0,44.00,-1
12188,50.20,-91.64,250.00,0,44.00,-1
12189,50.29,-91.99,251.00,0,44.18,-1
12190,50.38,-92.14,252.00,0,44.35,-1
12191,50.48,-92.47,252.00,0,44.35,-1
12192,50.57,-92.61,252.00,0,44.35,-1
12193,50.66,-93.08,252.00,0,44.35,-1
12194,50.75,-93.38,253.00,0,44.53,-1
12195,50.85,-93.22,252.00,0,44.35,-1
12196,50.94,-93.45,249.00,0,43.82,-1
12197,51.03,-94.44,251.00,0,44.18,-1
12198,51.22,-94.74,252.00,0,44.35,-1
12199,51.32,-94.63,252.00,0,44.35,-1
12200,51.41,-95.24,252.00,0,44.35,-1
12201,51.51,-95.51,252.00,0,44.35,-1
12202,51.61,-95.94,252.00,0,44.35,-1
12203,51.70,-95.89,252.00,0,44.35,-1
12204,51.80,-96.09,250.00,0,44.00,-1
12205,51.89,-96.45,251.00,0,44.18,-1
12206,51.99,-96.89,252.00,0,44.35,-1
12207,52.18,-97.05,251.00,0,44.18,-1
12208,52.28,-97.54,251.00,0,44.18,-1
12209,52.28,-97.87,252.00,0,44.35,-1
12210,52.48,-98.03,253.00,0,44.53,-1
12211,52.58,-98.06,251.00,0,44.18,-1
12212,52.67,-98.38,250.00,0,44.00,-1
12213,52.77,-98.86,250.00,0,44.00,-1
12214,52.87,-99.24,252.00,0,44.35,-1
12215,52.97,-99.36,253.00,0,44.53,-1
12216,53.07,-99.64,252.00,0,44.35,-1
12217,53.17,-100.09,252.00,0,44.35,-1
12218,53.27,-100.48,253.00,0,44.53,-1
12219,53.37,-100.77,253.00,0,44.53,-1
12220,53.47,-101.23,251.00,0,44.18,-1
12221,53.58,-101.70,250.00,0,44.00,-1
12222,53.68,-102.26,252.00,0,44.53,-1
12223,53.78,-102.61,253.00,0,44.53,-1
12224,53.88,-102.97,253.00,0,44.53,-1
12225,53.99,-103.31,253.00,0,44.53,-1
12226,54.09,-103.85,255.00,0,44.88,-1
12227,54.19,-103.99,253.00,0,44.53,-1
12228,54.30,-104.15,251.00,0,44.18,-1
12229,54.51,-105.10,253.00,0,44.53,-1
12230,54.61,-105.34,255.00,0,44.88,-1
12231,54.72,-105.17,254.00,0,44.70,-1
12232,54.82,-105.35,254.00,0,44.70,-1
12233,54.93,-105.66,255.00,0,44.88,-1
12234,55.04,-105.61,255.00,0,44.88,-1
12235,55.14,-105.63,253.00,0,44.53,-1
12236,55.25,-105.69,252.00,0,44.35,-1
12237,55.35,-106.18,253.00,0,44.53,-1
12238,55.46,-106.36,255.00,0,44.88,-1
12239,55.57,-106.41,254.00,0,44.70,-1
12240,55.67,-106.96,255.00,0,44.88,-1
12241,55.89,-107.11,255.00,0,44.88,-1
12242,55.99,-107.06,253.00,0,44.53,-1
12243,55.99,-107.54,251.00,0,44.18,-1
12244,56.21,-108.27,252.00,0,44.35,-1
12245,56.21,-108.53,254.00,0,44.70,-1
12246,56.32,-108.53,254.00,0,44.70,-1
12247,56.54,-109.23,253.00,0,44.53,-1
12248,56.65,-109.31,254.00,0,44.70,-1
12249,56.76,-109.73,254.00,0,44.70,-1
12250,56.86,-109.78,252.00,0,44.35,-1
12251,56.98,-110.27,251.00,0,44.18,-1
12252,57.09,-110.76,252.00,0,44.35,-1
12253,57.20,-110.96,254.00,0,44.70,-1
12254,57.31,-111.27,253.00,0,44.53,-1
12255,57.42,-111.16,254.00,0,44.70,-1
12256,57.53,-111.41,254.00,0,44.70,-1
12257,57.75,-111.83,252.00,0,44.35,-1
12258,57.87,-111.99,251.00,0,44.18,-1
12259,57.98,-112.73,253.00,0,44.53,-1
12260,58.09,-112.57,254.00,0,44.70,-1
12261,58.20,-113.15,253.00,0,44.53,-1
12262,58.32,-113.24,254.00,0,44.70,-1
12263,58.43,-113.67,255.00,0,44.88,-1
12264,58.55,-113.44,253.00,0,44.53,-1
12265,58.66,-113.89,251.00,0,44.53,-1
12266,58.77,-114.56,254.00,0,44.70,-1
12267,58.89,-115.04,254.00,0,44.70,-1
12268,59.12,-115.02,253.00,0,44.53,-1
12269,59.23,-115.34,255.00,0,44.88,-1
12270,59.35,-115.46,254.00,0,44.70,-1
12271,59.46,-115.34,252.00,0,44.35,-1
12272,59.58,-115.88,252.00,0,44.35,-1
12273,59.70,-116.07,254.00,0,44.70,-1
12274,59.81,-116.00,254.00,0,44.70,-1
12275,59.93,-116.45,254.00,0,44.70,-1
12276,60.04,-116.49,254.00,0,44.70,-1
12277,60.16,-116.37,255.00,0,44.35,-1
12278,60.28,-116.78,251.00,0,44.18,-1
12279,60.39,-117.12,253.00,0,44.53,-1
12280,60.51,-117.31,253.00,0,44.53,-1
12281,60.75,-117.62,253.00,0,44.53,-1
12282,60.86,-117.83,253.00,0,44.53,-1
12283,60.98,-118.08,254.00,0,44.70,-1
12284,61.10,-118.45,252.00,0,44.35,-1
12285,61.22,-118.86,251.00,0,44.18,-1
12286,61.34,-119.09,252.00,0,44.35,-1
12287,61.46,-119.31,253.00,0,44.53,-1
12288,61.58,-119.65,252.00,0,44.35,-1
12289,61.70,-120.06,252.00,0,44.53,-1
12290,61.82,-120.33,253.00,0,44.35,-1
12291,62.06,-120.64,250.00,0,44.00,-1
12292,62.06,-120.85,251.00,0,44.18,-1
12293,62.30,-120.98,252.00,0,44.35,-1
12294,62.42,-121.03,252.00,0,44.35,-1
12295,62.54,-121.21,251.00,0,44.18,-1
12296,62.66,-121.11,252.00,0,44.35,-1
12297,62.79,-121.05,251.00,0,44.18,-1
12298,62.91,-121.24,249.00,0,43.82,-1
12299,63.03,-121.49,250.00,0,44.00,-1
12300,63.15,-121.64,252.00,0,44.35,-1
12301,63.27,-121.80,251.00,0,44.18,-1
12302,63.39,-121.92,252.00,0,44.35,-1
12303,63.64,-122.24,251.00,0,44.18,-1
12304,63.76,-122.51,249.00,0,43.82,-1
12305,63.88,-123.16,250.00,0,44.00,-1
12306,64.01,-123.52,251.00,0,44.18,-1
12307,64.13,-123.70,251.00,0,44.18,-1
12308,64.26,-124.00,251.00,0,44.18,-1
12309,64.38,-124.28,252.00,0,44.35,-1
12310,64.50,-124.27,250.00,0,44.00,-1
12311,64.63,-124.73,249.00,0,43.82,-1
12312,64.75,-125.17,250.00,0,44.00,-1
12313,64.88,-125.43,251.00,0,44.18,-1
12314,65.00,-125.51,250.00,0,44.00,-1
12315,65.13,-125.77,251.00,0,44.18,-1
12316,65.26,-125.76,251.00,0,44.18,-1
12317,65.38,-125.78,249.00,0,43.82,-1
12318,65.51,-126.28,248.00,0,43.65,-1
12319,65.63,-126.71,251.00,0,44.18,-1
12320,65.76,-126.73,251.00,0,44.18,-1
12321,65.89,-127.09,250.00,0,44.00,-1
12322,66.02,-127.43,251.00,0,44.18,-1
12323,66.14,-127.61,251.00,0,43.65,-1
12324,66.27,-127.93,249.00,0,43.82,-1
12325,66.40,-128.45,251.00,0,44.18,-1
12326,66.66,-129.21,250.00,0,44.00,-1
12327,66.79,-129.63,250.00,0,44.00,-1
12328,66.92,-130.06,251.00,0,44.18,-1
12329,67.05,-130.25,250.00,0,44.00,-1
12330,67.18,-130.71,248.00,0,43.65,-1
12331,67.31,-131.11,249.00,0,43.82,-1
12332,67.44,-131.54,250.00,0,44.00,-1
12333,67.57,-132.06,250.00,0,44.00,-1
12334,67.71,-132.27,251.00,0,44.18,-1
12335,67.84,-132.43,250.00,0,44.00,-1
12336,67.97,-132.99,248.00,0,43.65,-1
12337,68.10,-133.44,248.00,0,44.18,-1
12338,68.24,-134.53,251.00,0,44.18,-1
12339,68.37,-134.53,251.00,0,44.18,-1
12340,68.64,-135.51,252.00,0,44.35,-1
12341,68.78,-135.95,250.00,0,44.00,-1
12342,68.92,-136.71,249.00,0,43.82,-1
12343,69.05,-137.48,252.00,0,44.35,-1
12344,69.19,-137.89,252.00,0,44.35,-1
12345,69.33,-138.57,253.00,0,44.53,-1
12346,69.47,-139.22,254.00,0,44.70,-1
12347,69.61,-139.32,253.00,0,44.53,-1
12348,69.75,-140.28,251.00,0,44.18,-1
12349,69.89,-140.56,253.00,0,44.53,-1
12350,70.03,-140.78,254.00,0,44.70,-1
12351,70.17,-141.42,254.00,0,44.70,-1
12352,70.31,-141.64,256.00,0,45.06,-1
12353,70.46,-141.77,255.00,0,44.88,-1
12354,70.60,-142.45,253.00,0,44.53,-1
12355,70.74,-142.91,255.00,0,44.88,-1
12356,70.88,-143.24,256.00,0,45.06,-1
12357,71.03,-143.61,256.00,0,45.06,-1
12358,71.17,-144.86,256.00,0,45.06,-1
12359,71.46,-145.48,254.00,0,44.70,-1
12360,71.61,-146.30,256.00,0,45.06,-1
12361,71.76,-146.75,257.00,0,45.23,-1
12362,71.90,-147.42,257.00,0,45.23,-1
12363,72.05,-147.97,258.00,0,45.41,-1
12364,72.20,-148.48,256.00,0,45.06,-1
12365,72.35,-149.20,256.00,0,45.06,-1
12366,72.50,-149.88,258.00,0,45.41,-1
12367,72.65,-150.23,259.00,0,45.58,-1
12368,72.80,-150.57,260.00,0,45.76,-1
12369,72.95,-150.96,259.00,0,45.58,-1
12370,73.10,-151.36,257.00,0,45.23,-1
12371,73.25,-152.11,258.00,0,45.41,-1
12372,73.41,-152.59,260.00,0,45.94,-1
12373,73.56,-153.32,262.00,0,46.11,-1
12374,73.71,-153.52,261.00,0,45.94,-1
12375,74.02,-154.04,259.00,0,45.58,-1
12376,74.17,-154.76,261.00,0,45.94,-1
12377,74.33,-155.24,262.00,0,46.11,-1
12378,74.49,-155.47,263.00,0,46.29,-1
12379,74.64,-155.61,264.00,0,46.46,-1
12380,74.80,-155.93,262.00,0,46.11,-1
12381,74.95,-156.62,262.00,0,46.11,-1
12382,75.11,-156.60,264.00,0,46.46,-1
12383,75.27,-156.92,264.00,0,46.46,-1
12384,75.42,-157.39,265.00,0,46.64,-1
12385,75.58,-157.34,264.00,0,46.46,-1
12386,75.74,-157.50,263.00,0,46.29,-1
12387,75.90,-158.29,266.00,0,46.82,-1
12388,76.06,-158.52,267.00,0,46.99,-1
12389,76.37,-159.08,266.00,0,46.82,-1
12390,76.53,-159.08,264.00,0,46.46,-1
12391,76.69,-159.74,265.00,0,46.64,-1
12392,76.85,-159.97,266.00,0,46.82,-1
12393,77.01,-160.16,267.00,0,46.99,-1
12394,77.17,-160.72,268.00,0,47.17,-1
12395,77.33,-160.52,265.00,0,46.64,-1
12396,77.49,-160.96,265.00,0,46.64,-1
12397,77.66,-160.82,267.00,0,46.99,-1
12398,77.82,-161.03,267.00,0,46.99,-1
12399,77.98,-161.22,268.00,0,47.17,-1
12400,78.14,-160.98,266.00,0,46.82,-1
12401,78.30,-161.08,265.00,0,46.64,-1
12402,78.46,-161.23,267.00,0,46.99,-1
12403,78.62,-161.35,268.00,0,47.17,-1
12404,78.78,-161.37,269.00,0,47.34,-1
12405,78.95,-161.71,267.00,0,46.99,-1
12406,79.11,-161.62,265.00,0,46.64,-1
12407,79.27,-162.37,267.00,0,46.99,-1
12408,79.43,-162.68,269.00,0,47.34,-1
12409,79.59,-162.59,269.00,0,47.34,-1
12410,79.92,-162.89,267.00,0,46.99,-1
12411,80.08,-163.12,267.00,0,46.99,-1
12412,80.25,-163.12,269.00,0,47.34,-1
12413,80.41,-163.16,269.00,0,47.34,-1
