cnt,pos,speed,DTorque,DAC,STorque,Force
1,-79.1069,-7.1726,0,0,0,0
3,-79.1868,-9.1657,0,0,0,0
5,-79.2538,-10.3947,0,0,0,0
7,-79.2966,-11.1529,0,0,0,0
9,-79.3191,-11.5224,0,0,0,0
11,-79.3663,-12.2186,0,0,0,0
13,-79.4294,-12.9588,0,0,0,0
15,-79.483,-13.6395,0,0,0,0
17,-79.5108,-14.0746,0,0,0,0
19,-79.5536,-14.4644,0,0,0,0
21,-79.583,-14.9913,0,0,0,0
23,-79.6597,-15.8186,0,0,0,0
25,-79.7076,-16.2513,0,0,0,0
27,-79.7569,-16.7687,-1,0,0,0
29,-79.8249,-17.3253,0,0,0,0
31,-79.8597,-17.6079,0,0,0,0
33,-79.9311,-18.2134,-1,0,0,0
35,-79.9677,-18.453,0,0,0,0
37,-80.0423,-19.0002,0,0,0,0
39,-80.0804,-19.2648,-1,0,0,0
41,-80.1583,-19.8322,0,0,0,0
43,-80.2182,-20.2506,0,0,0,0
45,-80.2795,-20.6023,0,0,0,0
47,-80.3212,-20.8741,0,0,0,0
49,-80.3846,-21.5202,0,0,0,0
51,-80.4278,-21.8575,0,0,0,0
53,-80.4937,-22.1055,0,0,0,0
55,-80.5384,-22.4214,0,0,0,0
57,-80.6297,-23.2558,0,0,0,0
59,-80.6998,-23.5169,0,0,0,0
61,-80.7472,-23.9806,0,0,0,0
63,-80.8437,-24.4467,0,0,0,0
65,-80.8926,-24.6648,0,0,0,0
67,-80.9669,-24.9068,0,0,0,0
69,-81.0421,-25.2382,0,0,0,0
71,-81.1437,-25.5875,-1,0,0,0
73,-81.1951,-25.8926,0,0,0,0
75,-81.247,-26.0405,-1,0,0,0
77,-81.3517,-26.435,0,0,0,0
79,-81.4313,-26.7497,-1,0,0,0
81,-81.5119,-26.9536,0,0,0,0
83,-81.5662,-27.1932,-1,0,0,0
85,-81.6763,-27.6903,0,0,0,0
87,-81.732,-27.9072,0,0,0,0
89,-81.7881,-28.2458,-1,0,0,0
91,-81.9302,-28.6201,-1,0,0,0
93,-81.9878,-28.8275,0,0,0,0
95,-82.0457,-29.1243,0,0,0,0
97,-82.104,-29.3377,0,0,0,0
99,-82.2219,-29.6965,0,0,0,0
101,-82.2815,-29.8825,0,0,0,0
103,-82.4016,-30.2019,0,0,0,0
105,-82.4624,-30.4964,-1,0,0,0
107,-82.585,-30.8421,0,0,0,0
109,-82.647,-31.1055,0,0,0,0
111,-82.772,-31.3892,0,0,0,0
113,-82.835,-31.5108,-1,0,0,0
115,-82.9301,-31.8303,-1,0,0,0
117,-82.9938,-31.9984,1,0,0,0
119,-83.1224,-32.3441,-1,0,0,0
121,-83.1871,-32.4633,0,0,0,0
123,-83.2847,-32.629,-1,0,0,0
125,-83.3503,-32.8328,1,0,0,0
127,-83.4824,-33.2548,-1,0,0,0
129,-83.5824,-33.4777,-1,0,0,0
131,-83.6495,-33.7054,0,0,0,0
133,-83.8188,-34.0439,-1,0,0,0
135,-83.8871,-34.2084,0,0,0,0
137,-83.99,-34.4862,0,0,0,0
139,-84.059,-34.6006,0,0,0,0
141,-84.1979,-34.8951,-1,0,0,0
143,-84.2678,-35.0309,-1,0,0,0
145,-84.4438,-35.466,-1,0,0,0
147,-84.5148,-35.6484,0,0,0,0
149,-84.6219,-35.8713,1,0,0,0
151,-84.7296,-35.9524,1,0,0,0
153,-84.8379,-36.2349,0,0,0,0
155,-84.9104,-36.341,0,0,0,0
157,-85.0195,-36.4268,0,0,0,0
159,-85.0924,-36.5365,0,0,0,0
161,-85.2388,-36.7177,0,0,0,0
163,-85.349,-36.7344,1,0,0,0
165,-85.4966,-36.9716,0,0,0,0
167,-85.5707,-37.1969,-1,0,0,0
169,-85.6824,-37.2637,0,0,0,0
171,-85.7945,-37.4449,-1,0,0,0
173,-85.9447,-37.6237,-1,0,0,0
175,-86.0201,-37.6475,1,0,0,0
177,-86.0956,-37.8192,0,0,0,0
179,-86.1713,-37.8382,0,0,0,0
181,-86.3229,-38.0266,1,0,0,0
183,-86.4753,-38.1875,-1,0,0,0
185,-86.5518,-38.3186,0,0,0,0
187,-86.6285,-38.4235,0,0,0,0
189,-86.7823,-38.4951,0,0,0,0
191,-86.8594,-38.5499,0,0,0,0
193,-87.0524,-38.6262,1,0,0,0
195,-87.1684,-38.6786,0,0,0,0
197,-87.2458,-38.6977,0,0,0,0
199,-87.3233,-38.8074,0,0,0,0
201,-87.4787,-38.917,0,0,0,0
203,-87.5567,-39.0279,-1,0,0,0
205,-87.6739,-39.171,1,0,0,0
207,-87.7916,-39.2639,-1,0,0,0
209,-87.9094,-39.345,-1,0,0,0
211,-88.0274,-39.3569,1,0,0,0
213,-88.1061,-39.3676,-1,0,0,0
215,-88.2243,-39.4153,0,0,0,0
217,-88.4218,-39.5512,0,0,0,0
219,-88.501,-39.6251,-1,0,0,0
221,-88.6599,-39.7634,1,0,0,0
223,-88.7395,-39.798,1,0,0,0
225,-88.8191,-39.8016,-1,0,0,0
227,-88.8987,-39.8421,-1,0,0,0
229,-89.098,-39.8802,0,0,0,0
231,-89.1778,-39.891,0,0,0,0
233,-89.2577,-39.9482,0,0,0,0
235,-89.3376,-40.0006,1,0,0,0
237,-89.4978,-40.1401,-1,0,0,0
239,-89.5781,-40.2283,0,0,0,0
241,-89.739,-40.2843,1,0,0,0
243,-89.8196,-40.3272,-1,0,0,0
245,-89.981,-40.3261,0,0,0,0
247,-90.0617,-40.3952,0,0,0,0
249,-90.2234,-40.4798,-1,0,0,0
251,-90.3448,-40.5239,0,0,0,0
253,-90.4665,-40.6348,-1,0,0,0
255,-90.5884,-40.6372,0,0,0,0
257,-90.7105,-40.7254,1,0,0,0
259,-90.7919,-40.7373,-1,0,0,0
261,-90.9141,-40.779,-1,0,0,0
263,-91.118,-40.8398,-1,0,0,0
265,-91.2405,-40.8124,0,0,0,0
267,-91.4449,-40.9006,-1,0,0,0
269,-91.5676,-40.9388,-1,0,0,0
271,-91.6497,-41.0318,0,0,0,0
273,-91.7727,-41.058,0,0,0,0
275,-91.896,-41.0878,0,0,0,0
277,-91.9782,-41.114,1,0,0,0
279,-92.1015,-41.0747,0,0,0,0
281,-92.1838,-41.151,-1,0,0,0
283,-92.3486,-41.2666,1,0,0,0
285,-92.4725,-41.2678,-1,0,0,0
287,-92.5551,-41.3274,0,0,0,0
289,-92.7619,-41.3667,1,0,0,0
291,-92.8447,-41.3476,-1,0,0,0
293,-92.9274,-41.4251,0,0,0,0
295,-93.0515,-41.3536,1,0,0,0
297,-93.217,-41.3739,0,0,0,0
299,-93.2998,-41.3715,1,0,0,0
301,-93.4653,-41.4144,-1,0,0,0
303,-93.5896,-41.4561,-1,0,0,0
305,-93.6726,-41.418,1,0,0,0
307,-93.8384,-41.499,-1,0,0,0
309,-94.0043,-41.499,1,0,0,0
311,-94.0872,-41.4347,0,0,0,0
313,-94.1702,-41.5122,-1,0,0,0
315,-94.253,-41.5002,0,0,0,0
317,-94.4604,-41.4287,-1,68.7128,0,0
319,-94.6263,-41.5086,3,68.7128,0,1
321,-94.7901,-39.7706,66,69.9991,0,29
323,-94.9077,-38.0457,68,69.9991,0,30
325,-95.0201,-36.9251,70,71.2006,0,31
327,-95.2303,-33.7697,72,72.2827,0,32
329,-95.2964,-32.3381,72,72.2827,0,32
331,-95.4532,-29.979,71,73.2586,0,31
333,-95.5418,-29.0695,73,73.2586,0,32
335,-95.6264,-27.2921,73,73.2586,0,32
337,-95.7067,-25.876,74,74.1354,0,33
339,-95.8073,-23.9472,73,74.1354,0,32
341,-95.8547,-22.9638,74,74.91,0,33
343,-95.9645,-20.4593,74,74.91,0,33
345,-96.0432,-18.3541,75,75.6636,0,33
347,-96.0967,-17.3456,74,75.6636,0,33
349,-96.13,-15.8722,75,76.2038,0,33
351,-96.1905,-13.798,76,76.2038,0,34
353,-96.2305,-12.8444,77,76.6345,0,34
355,-96.2968,-9.341,77,76.9557,0,34
357,-96.3313,-7.3919,77,76.9557,0,34
359,-96.3578,-5.3714,76,77.1697,0,34
361,-96.3724,-4.3629,76,77.1697,0,34
363,-96.385,-1.9407,77,77.1697,0,34
365,-96.3898,-0.4661,77,77.2817,0,34
367,-96.3873,1.5437,77,77.2767,0,34
369,-96.3818,2.402,78,77.2525,0,35
371,-96.3675,3.5476,78,77.1731,0,35
373,-96.3521,4.1376,78,77.1389,0,35
375,-96.3337,5.0269,78,77.0386,0,35
377,-96.3181,5.4978,78,76.9449,0,35
379,-96.3011,5.9531,77,76.8938,0,34
381,-96.2764,6.3882,76,76.7839,0,34
383,-96.2494,7.1511,76,76.632,0,34
385,-96.2275,7.6268,76,76.5665,0,34
387,-96.1876,8.5196,76,76.3892,0,34
389,-96.1615,9.0155,77,76.2333,0,34
391,-96.1148,9.8154,76,76.0221,0,34
393,-96.0849,10.2028,76,75.9331,0,34
395,-96.0538,10.7082,76,75.7473,0,34
397,-96.0214,10.9514,76,75.6506,0,34
399,-95.9646,11.7072,76,75.3983,0,34
401,-95.9291,11.9218,75,75.2935,0,33
403,-95.8802,12.519,75,75.0232,0,33
405,-95.8423,12.8718,75,74.7975,0,33
407,-95.7497,13.68,74,74.3824,0,33
409,-95.6801,14.1688,75,74.197,0,33
411,-95.6072,14.8399,74,73.7433,0,33
413,-95.562,15.2369,73,73.4728,0,32
415,-95.4689,15.7351,73,73.1249,0,32
417,-95.4372,15.9986,73,72.983,0,32
419,-95.389,16.2739,73,72.8399,0,32
421,-95.3399,16.4456,73,72.6948,0,32
423,-95.2394,17.0464,72,72.0993,0,32
425,-95.188,17.2681,72,71.9467,0,32
427,-95.1008,17.6269,71,71.4022,0,31
429,-95.0298,17.9726,71,71.1638,0,31
431,-94.9208,18.3791,71,70.8406,0,31
433,-94.8651,18.7403,70,70.3454,0,31
435,-94.7523,18.9871,70,70.0101,0,31
437,-94.6952,19.1587,70,69.8411,0,31
439,-94.6374,19.3375,70,69.4997,0,31
441,-94.5403,19.5545,69,69.0678,0,31
443,-94.4815,19.6141,69,68.8937,0,31
445,-94.383,19.781,68,68.2808,0,30
447,-94.3036,19.9538,69,67.9273,0,31
449,-94.2436,20.0468,67,67.8384,0,30
451,-94.143,20.2304,67,67.392,0,30
453,-94.0824,20.2435,67,66.9426,0,30
455,-93.9602,20.4938,66,66.3073,0,29
457,-93.8781,20.5308,66,66.1249,0,29
459,-93.7957,20.6404,66,65.6668,0,29
461,-93.7337,20.6464,65,65.4832,0,29
463,-93.6303,20.7275,66,65.0237,0,29
465,-93.5682,20.7036,65,64.8394,0,29
467,-93.4854,20.681,65,64.3795,0,29
469,-93.4234,20.6393,64,64.0123,0,28
471,-93.2996,20.6834,64,63.4616,0,28
473,-93.2169,20.6393,62,63.186,0,27
475,-93.093,20.6118,62,62.544,0,27
477,-93.0312,20.5975,62,62.1778,0,27
479,-92.887,20.5987,62,61.6284,0,27
481,-92.8253,20.5117,61,61.4457,0,27
483,-92.723,20.3567,61,60.9007,0,27
485,-92.662,20.2995,62,60.6299,0,27
487,-92.5609,20.1434,60,60.2707,0,27
489,-92.5208,20.0122,60,60.0923,0,27
491,-92.4609,19.8823,60,59.8262,0,27
493,-92.4212,19.8084,59,59.6498,0,26
495,-92.3031,19.5664,60,59.1249,0,27
497,-92.2445,19.4722,59,58.8645,0,26
499,-92.1475,19.3149,58,58.5193,0,26
501,-92.109,19.2016,58,58.092,0,26
503,-92.0136,18.9632,58,57.7538,0,26
505,-91.9379,18.7749,57,57.5857,0,25
507,-91.8444,18.5853,57,57.1688,0,25
509,-91.8073,18.4494,57,56.8395,0,25
511,-91.7158,18.1264,56,56.5145,0,25
513,-91.6615,17.9512,57,56.1135,0,25
515,-91.5544,17.6114,56,55.719,0,25
517,-91.5018,17.4481,55,55.5635,0,24
519,-91.4327,17.0667,55,55.1806,0,24
521,-91.3817,16.8712,55,54.8801,0,24
523,-91.3145,16.684,56,54.7311,0,25
525,-91.2812,16.5541,54,54.5832,0,24
527,-91.1992,16.2489,54,54.2188,0,24
529,-91.1669,16.026,54,54.0751,0,24
531,-91.0562,15.5015,53,53.5832,0,23
533,-90.9946,15.2655,53,53.3095,0,23
535,-90.9192,14.8733,53,52.9083,0,23
537,-90.8603,14.5478,52,52.6476,0,23
539,-90.7884,14.1271,52,52.33,0,23
541,-90.7463,13.9423,52,52.2057,0,23
543,-90.7051,13.5584,52,51.9624,0,23
545,-90.6647,13.3773,52,51.843,0,23
547,-90.5989,12.7621,51,51.3809,0,22
549,-90.5358,12.3294,51,51.2152,0,22
551,-90.475,11.8908,51,50.9472,0,22
553,-90.4396,11.7108,51,50.8427,0,22
555,-90.3712,11.1147,50,50.4404,0,22
557,-90.3273,10.7714,50,50.3435,0,22
559,-90.2743,10.322,50,50.1081,0,22
561,-90.2436,10.0288,50,49.927,0,22
563,-90.1848,9.5508,49,49.7529,0,22
565,-90.1568,9.2241,49,49.5859,0,22
567,-90.1387,8.9511,49,49.5052,0,22
569,-90.095,8.2848,49,49.2,0,22
571,-90.0538,8.0452,48,49.128,0,21
573,-90.0074,7.4432,49,48.856,0,22
575,-89.9781,7.0999,48,48.76,0,21
577,-89.9366,6.604,48,48.5489,0,21
579,-89.9171,6.3155,48,48.4924,0,21
581,-89.8865,5.8411,48,48.333,0,21
583,-89.8638,5.493,48,48.2835,0,21
585,-89.8323,5.0186,48,48.1657,0,21
587,-89.8224,4.8278,48,48.1212,0,21
589,-89.8082,4.5298,48,48.0365,0,21
591,-89.7948,4.3748,48,47.9962,0,21
593,-89.7664,3.7514,47,47.8673,0,21
595,-89.7591,3.4164,47,47.8184,0,21
597,-89.7399,2.8705,47,47.7076,0,21
599,-89.7289,2.5248,47,47.6616,0,21
601,-89.7149,2.0336,47,47.6217,0,21
603,-89.709,1.7631,47,47.5878,0,21
605,-89.7008,1.3697,47,47.5531,0,21
607,-89.6969,1.2314,47,47.5419,0,21
609,-89.6909,0.7343,47,47.527,0,21
611,-89.6889,0.5293,47,47.527,0,21
613,-89.6874,0.3564,47,47.527,0,21
615,-89.6866,0.2229,47,47.527,0,21
617,-89.6864,-0.1192,47,47.527,0,21
619,-89.687,-0.1323,47,47.527,0,21
621,-89.6874,-0.0215,47,47.527,0,21
623,-89.6874,0.0191,47,47.527,0,21
625,-89.6872,0.0179,47,47.527,0,21
627,-89.6872,-0.0119,47,47.527,0,21
629,-89.6873,-0.0215,47,47.527,0,21
631,-89.6873,0.0083,47,47.527,0,21
633,-89.6873,0,47,47.527,0,21
635,-89.6873,-0.0024,47,47.527,0,21
637,-89.6873,0.006,47,47.527,0,21
639,-89.6873,-0.0036,47,47.527,0,21
641,-89.6873,0.0048,47,47.527,0,21
643,-89.6873,0,47,47.527,0,21
645,-89.6873,-0.0024,47,47.527,0,21
647,-89.6873,0.0024,47,47.527,0,21
649,-89.6873,0,47,47.527,0,21
651,-89.6873,0,47,47.527,0,21
653,-89.6873,0,47,47.527,0,21
655,-89.6873,-0.006,47,47.527,0,21
657,-89.6873,-0.0024,47,47.527,0,21
659,-89.6873,0.0048,48,47.527,0,21
661,-89.6873,0.0036,47,47.527,0,21
663,-89.6873,0,47,47.527,0,21
665,-89.6873,0.0036,47,47.527,0,21
667,-89.6873,-0.0012,47,47.527,0,21
669,-89.6873,0,47,47.527,0,21
671,-89.6873,0.0036,47,47.527,0,21
673,-89.6873,0.0048,47,47.527,0,21
675,-89.6873,-0.0012,47,47.527,0,21
677,-89.6873,0.0036,47,47.527,0,21
679,-89.6873,-0.0048,47,47.527,0,21
681,-89.6873,0,47,47.527,0,21
683,-89.6873,0.0012,47,47.527,0,21
685,-89.6873,-0.0024,47,47.527,0,21
687,-89.6873,-0.0072,47,47.527,0,21
689,-89.6873,0.0048,47,47.527,0,21
691,-89.6873,0,47,47.527,0,21
693,-89.6873,-0.0024,47,47.527,0,21
695,-89.6873,0.0048,47,47.527,0,21
697,-89.6873,0,47,47.527,0,21
699,-89.6873,0.0024,47,47.527,0,21
701,-89.6873,0.0012,47,47.527,0,21
703,-89.6873,0.0012,47,47.527,0,21
705,-89.6873,0.0036,47,47.527,0,21
707,-89.6873,-0.0036,47,47.527,0,21
709,-89.6873,0,47,47.527,0,21
711,-89.6873,-0.0048,47,47.527,0,21
713,-89.6873,0.0036,47,47.527,0,21
715,-89.6873,0.0012,47,47.527,0,21
717,-89.6873,-0.0024,47,47.527,0,21
719,-89.6873,0.006,47,47.527,0,21
721,-89.6873,-0.0024,47,47.527,0,21
723,-89.6873,-0.0012,47,47.527,0,21
725,-89.6873,-0.0024,47,47.527,0,21
727,-89.6873,0,47,47.527,0,21
729,-89.6873,0,47,47.527,0,21
731,-89.6873,-0.0012,47,47.527,0,21
733,-89.6873,0.0048,47,47.527,0,21
735,-89.6873,0,47,47.527,0,21
737,-89.6873,-0.0012,47,47.527,0,21
739,-89.6873,0.006,47,47.527,0,21
741,-89.6873,0.0024,47,47.527,0,21
743,-89.6873,-0.0024,47,47.527,0,21
745,-89.6873,0,47,47.527,0,21
747,-89.6873,0.0012,47,47.527,0,21
749,-89.6873,0.0012,47,47.527,0,21
751,-89.6873,0,47,47.527,0,21
753,-89.6873,-0.0048,47,47.527,0,21
755,-89.6873,0.0012,47,47.527,0,21
757,-89.6873,0.0012,47,47.527,0,21
759,-89.6873,0.0036,47,47.527,0,21
761,-89.6873,-0.0036,47,47.527,0,21
763,-89.6873,0.006,47,47.527,0,21
765,-89.6873,-0.0048,47,47.527,0,21
767,-89.6873,-0.0024,47,47.527,0,21
769,-89.6873,0,47,47.527,0,21
771,-89.6873,0.0024,47,47.527,0,21
773,-89.6873,-0.0048,47,47.527,0,21
775,-89.6873,0.0036,47,47.527,0,21
777,-89.6873,-0.006,47,47.527,0,21
779,-89.6873,0.0036,47,47.527,0,21
781,-89.6873,0.0012,47,47.527,0,21
783,-89.6873,0.0012,47,47.527,0,21
785,-89.6873,0.0012,47,47.527,0,21
787,-89.6873,-0.0036,47,47.527,0,21
789,-89.6873,0,47,47.527,0,21
791,-89.6873,0.0024,47,47.527,0,21
793,-89.6873,0.0048,47,47.527,0,21
795,-89.6873,0,47,47.527,0,21
797,-89.6873,-0.006,47,47.527,0,21
799,-89.6873,0,47,47.527,0,21
801,-89.6873,-0.0048,47,47.527,0,21
803,-89.6873,0.0036,47,47.527,0,21
805,-89.6873,-0.0048,47,47.527,0,21
807,-89.6873,-0.0036,47,47.527,0,21
809,-89.6873,-0.0012,47,47.527,0,21
811,-89.6873,-0.0012,47,47.527,0,21
813,-89.6873,0,47,47.527,0,21
815,-89.6873,0.0012,47,47.527,0,21
817,-89.6873,0.0024,47,47.527,0,21
819,-89.6873,0.006,47,47.527,0,21
821,-89.6873,0.0024,47,47.527,0,21
823,-89.6873,-0.006,47,47.527,0,21
825,-89.6873,0.0012,47,47.527,0,21
827,-89.6873,0,47,47.527,0,21
829,-89.6873,0,47,47.527,0,21
831,-89.6873,0.0036,47,47.527,0,21
833,-89.6873,0.0036,47,47.527,0,21
835,-89.6873,0,47,47.527,0,21
837,-89.6873,0,47,47.527,0,21
839,-89.6873,-0.0024,47,47.527,0,21
841,-89.6873,0.0036,47,47.527,0,21
843,-89.6873,-0.0012,47,47.527,0,21
845,-89.6873,0.0048,47,47.527,0,21
847,-89.6873,-0.0048,47,47.527,0,21
849,-89.6873,0.0072,47,47.527,0,21
851,-89.6873,-0.006,47,47.527,0,21
853,-89.6873,-0.0024,47,47.527,0,21
855,-89.6873,-0.0048,47,47.527,0,21
857,-89.6873,-0.0048,47,47.527,0,21
859,-89.6873,0.0012,47,47.527,0,21
861,-89.6873,-0.0012,47,47.527,0,21
863,-89.6873,0.0024,47,47.527,0,21
865,-89.6873,0,47,47.527,0,21
867,-89.6873,0.0048,47,47.527,0,21
869,-89.6873,0.0024,47,47.527,0,21
871,-89.6873,-0.0036,47,47.527,0,21
873,-89.6873,0,47,47.527,0,21
875,-89.6873,-0.0012,47,47.527,0,21
877,-89.6873,-0.0012,47,47.527,0,21
879,-89.6873,0,47,47.527,0,21
881,-89.6873,0.0012,47,47.527,0,21
883,-89.6873,0.0036,47,47.527,0,21
885,-89.6873,0.0024,47,47.527,0,21
887,-89.6873,0.0036,47,47.527,0,21
889,-89.6873,-0.0024,47,47.527,0,21
891,-89.6873,0,47,47.527,0,21
893,-89.6873,0,47,47.527,0,21
895,-89.6873,0,47,47.527,0,21
897,-89.6873,-0.0012,47,47.527,0,21
899,-89.6873,-0.0036,47,47.527,0,21
901,-89.6873,0.0048,47,47.527,0,21
903,-89.6873,-0.0012,47,47.527,0,21
905,-89.6873,0,47,47.527,0,21
907,-89.6873,-0.0024,47,47.527,0,21
909,-89.6873,0.0012,47,47.527,0,21
911,-89.6873,-0.0012,47,47.527,0,21
913,-89.6873,0,47,47.527,0,21
915,-89.6873,-0.0024,47,47.527,0,21
917,-89.6873,0.0048,47,47.527,0,21
919,-89.6873,-0.0036,47,47.527,0,21
921,-89.6873,0,47,47.527,0,21
923,-89.6873,-0.0012,47,47.527,0,21
925,-89.6873,-0.0024,47,47.527,0,21
927,-89.6873,0.0012,47,47.527,0,21
929,-89.6873,-0.0048,47,47.527,0,21
931,-89.6873,0.0024,47,47.527,0,21
933,-89.6873,-0.0024,47,47.527,0,21
935,-89.6873,0.0012,47,47.527,0,21
937,-89.6873,-0.0048,47,47.527,0,21
939,-89.6873,0.0012,47,47.527,0,21
941,-89.6873,-0.0048,47,47.527,0,21
943,-89.6873,0,47,47.527,0,21
945,-89.6873,-0.0036,47,47.527,0,21
947,-89.6873,0.0024,47,47.527,0,21
949,-89.6873,0.0012,47,47.527,0,21
951,-89.6873,-0.0024,47,47.527,0,21
953,-89.6873,0,47,47.527,0,21
955,-89.6873,-0.0012,47,47.527,0,21
957,-89.6873,-0.0024,47,47.527,0,21
959,-89.6873,0.0048,47,47.527,0,21
961,-89.6873,0,47,47.527,0,21
963,-89.6873,0.0012,47,47.527,0,21
965,-89.6873,0.0048,47,47.527,0,21
967,-89.6873,-0.0024,47,47.527,0,21
969,-89.6873,0.0072,47,47.527,0,21
971,-89.6873,-0.0024,47,47.527,0,21
973,-89.6873,-0.006,47,47.527,0,21
975,-89.6873,0.006,47,47.527,0,21
977,-89.6873,-0.006,47,47.527,0,21
979,-89.6873,-0.0036,47,47.527,0,21
981,-89.6873,0,47,47.527,0,21
983,-89.6873,0,47,47.527,0,21
985,-89.6873,0,47,47.527,0,21
987,-89.6873,0.0012,48,47.527,0,21
989,-89.6873,-0.0036,47,47.527,0,21
991,-89.6873,-0.0012,47,47.527,0,21
993,-89.6873,-0.0024,47,47.527,0,21
995,-89.6873,0.0024,47,47.527,0,21
997,-89.6873,-0.0012,47,47.527,0,21
999,-89.6873,0.0012,47,47.527,0,21
1001,-89.6873,0,47,47.527,0,21
1003,-89.6873,0.0024,47,47.527,0,21
1005,-89.6873,0.0036,47,47.527,0,21
1007,-89.6873,0.0024,47,47.527,0,21
1009,-89.6873,0.0024,47,47.527,0,21
1011,-89.6873,0,47,47.527,0,21
1013,-89.6873,-0.0036,47,47.527,0,21
1015,-89.6873,0,47,47.527,0,21
1017,-89.6873,0.0012,47,47.527,0,21
1019,-89.6873,0,47,47.527,0,21
1021,-89.6873,0,47,47.527,0,21
1023,-89.6873,0.0012,47,47.527,0,21
1025,-89.6873,0,47,47.527,0,21
1027,-89.6873,0.0036,47,47.527,0,21
1029,-89.6873,0,47,47.527,0,21
1031,-89.6873,-0.0036,47,47.527,0,21
1033,-89.6873,-0.0012,47,47.527,0,21
1035,-89.6873,-0.0036,47,47.527,0,21
1037,-89.6873,0,47,47.527,0,21
1039,-89.6873,-0.0012,47,47.527,0,21
1041,-89.6873,-0.0048,47,47.527,0,21
1043,-89.6873,-0.0012,47,47.527,0,21
1045,-89.6873,0,47,47.527,0,21
1047,-89.6873,-0.0012,47,47.527,0,21
1049,-89.6873,0,47,47.527,0,21
1051,-89.6873,-0.0012,47,47.527,0,21
1053,-89.6873,-0.0048,47,47.527,0,21
1055,-89.6873,0.0036,47,47.527,0,21
1057,-89.6873,0.0012,47,47.527,0,21
1059,-89.6873,0.0012,47,47.527,0,21
1061,-89.6873,0.0036,47,47.527,0,21
1063,-89.6873,-0.0012,47,47.527,0,21
1065,-89.6873,-0.0036,47,47.527,0,21
1067,-89.6873,-0.0012,47,47.527,0,21
1069,-89.6873,-0.0012,47,47.527,0,21
1071,-89.6873,0.0012,47,47.527,0,21
1073,-89.6873,-0.0036,47,47.527,0,21
1075,-89.6873,0,47,47.527,0,21
1077,-89.6873,0.0012,47,47.527,0,21
1079,-89.6873,-0.0012,47,47.527,0,21
1081,-89.6873,0.0012,47,47.527,0,21
1083,-89.6873,-0.0024,47,47.527,0,21
1085,-89.6873,0.0083,47,47.527,0,21
1087,-89.6873,-0.0072,47,47.527,0,21
1089,-89.6873,-0.0012,47,47.527,0,21
1091,-89.6873,-0.0024,47,47.527,0,21
1093,-89.6873,-0.0036,47,47.527,0,21
1095,-89.6873,0,47,47.527,0,21
1097,-89.6873,-0.0012,47,47.527,0,21
1099,-89.6873,0.0036,47,47.527,0,21
1101,-89.6873,-0.0012,47,47.527,0,21
1103,-89.6873,0,47,47.527,0,21
1105,-89.6873,-0.0036,47,47.527,0,21
1107,-89.6873,0.0036,47,47.527,0,21
1109,-89.6873,0.0012,47,47.527,0,21
1111,-89.6873,0.0048,47,47.527,0,21
1113,-89.6873,-0.0036,47,47.527,0,21
1115,-89.6873,0.0012,47,47.527,0,21
1117,-89.6873,-0.0036,47,47.527,0,21
1119,-89.6873,0.0012,47,47.527,0,21
1121,-89.6873,0.0024,47,47.527,0,21
1123,-89.6873,-0.006,47,47.527,0,21
1125,-89.6873,-0.0048,47,47.527,0,21
1127,-89.6873,0.0012,47,47.527,0,21
1129,-89.6873,0.0012,47,47.527,0,21
1131,-89.6873,0,47,47.527,0,21
1133,-89.6873,-0.0024,47,47.527,0,21
1135,-89.6873,-0.0036,47,47.527,0,21
1137,-89.6873,0.0036,47,47.527,0,21
1139,-89.6873,-0.0036,47,47.527,0,21
1141,-89.6873,-0.0012,47,47.527,0,21
1143,-89.6873,-0.0012,47,47.527,0,21
1145,-89.6873,0,47,47.527,0,21
1147,-89.6873,-0.0012,47,47.527,0,21
1149,-89.6873,0,47,47.527,0,21
1151,-89.6873,0.0048,47,47.527,0,21
1153,-89.6873,0.0036,47,47.527,0,21
1155,-89.6873,-0.0024,47,47.527,0,21
1157,-89.6873,0.0024,47,47.527,0,21
1159,-89.6873,0,47,47.527,0,21
1161,-89.6873,0.0024,47,47.527,0,21
1163,-89.6873,-0.0024,47,47.527,0,21
1165,-89.6873,0,47,47.527,0,21
1167,-89.6873,0.006,47,47.527,0,21
1169,-89.6873,0.0024,47,47.527,0,21
1171,-89.6873,-0.0036,47,47.527,0,21
1173,-89.6873,0.0036,47,47.527,0,21
1175,-89.6873,-0.0036,47,47.527,0,21
1177,-89.6873,0,47,47.527,0,21
1179,-89.6873,-0.0012,47,47.527,0,21
