cnt,pos,speed,DTorque,STorque,Force,Dir
1,34.28,-92.68,133.00,0,23.41,-1
2,34.38,-94.27,136.00,0,23.94,-1
3,34.47,-96.36,138.00,0,24.29,-1
4,34.57,-98.11,141.00,0,24.82,-1
5,34.67,-100.17,145.00,0,25.52,-1
6,34.77,-101.91,147.00,0,25.87,-1
7,34.88,-103.83,149.00,0,26.22,-1
8,34.98,-105.94,152.00,0,26.75,-1
9,35.09,-107.61,156.00,0,27.46,-1
10,35.20,-109.73,160.00,0,28.16,-1
11,35.31,-111.43,162.00,0,28.51,-1
12,35.42,-113.37,166.00,0,29.22,-1
13,35.54,-115.09,170.00,0,29.92,-1
14,35.66,-116.96,171.00,0,30.10,-1
15,35.77,-118.70,173.00,0,30.45,-1
16,35.90,-120.71,177.00,0,31.15,-1
17,36.02,-122.47,184.00,0,32.38,-1
18,36.14,-124.09,188.00,0,33.09,-1
19,36.39,-127.37,192.00,0,33.79,-1
20,36.52,-128.68,194.00,0,34.14,-1
21,36.65,-130.27,195.00,0,34.32,-1
22,36.79,-132.03,200.00,0,35.20,-1
23,36.92,-133.70,204.00,0,35.90,-1
24,37.05,-134.99,207.00,0,36.43,-1
25,37.19,-136.65,211.00,0,37.14,-1
26,37.33,-137.91,214.00,0,37.66,-1
27,37.47,-139.43,214.00,0,37.66,-1
28,37.61,-140.95,218.00,0,38.37,-1
29,37.75,-142.64,223.00,0,39.25,-1
30,37.90,-144.01,226.00,0,39.78,-1
31,38.04,-145.29,230.00,0,40.48,-1
32,38.19,-146.59,232.00,0,40.83,-1
33,38.34,-147.80,233.00,0,41.01,-1
34,38.49,-149.18,237.00,0,41.71,-1
35,38.64,-150.36,241.00,0,42.42,-1
36,38.79,-152.65,248.00,0,43.65,-1
37,38.94,-152.65,248.00,0,43.82,-1
38,39.25,-154.40,251.00,0,44.18,-1
39,39.40,-155.57,256.00,0,45.06,-1
40,39.56,-156.55,259.00,0,45.58,-1
41,39.72,-157.71,263.00,0,46.29,-1
42,39.88,-158.15,266.00,0,46.82,-1
43,40.03,-159.28,266.00,0,46.82,-1
44,40.20,-160.08,270.00,0,47.52,-1
45,40.36,-160.93,274.00,0,48.22,-1
46,40.52,-161.58,277.00,0,48.75,-1
47,40.68,-162.16,281.00,0,49.46,-1
48,40.84,-162.60,281.00,0,49.46,-1
49,41.01,-163.29,284.00,0,49.98,-1
50,41.17,-163.59,288.00,0,50.69,-1
51,41.33,-163.82,291.00,0,51.22,-1
52,41.50,-164.14,294.00,0,51.74,-1
53,41.66,-164.43,295.00,0,51.92,-1
54,41.83,-164.49,297.00,0,52.27,-1
55,41.99,-164.84,301.00,0,52.98,-1
56,42.16,-165.08,304.00,0,54.21,-1
57,42.49,-165.41,309.00,0,54.38,-1
58,42.49,-165.60,309.00,0,54.38,-1
59,42.65,-165.97,313.00,0,55.09,-1
60,42.82,-165.99,316.00,0,55.62,-1
61,42.98,-165.95,319.00,0,56.14,-1
62,43.15,-165.95,320.00,0,56.32,-1
63,43.32,-165.75,320.00,0,56.32,-1
64,43.65,-165.80,324.00,0,57.02,-1
65,43.81,-165.52,327.00,0,57.55,-1
66,43.98,-165.30,330.00,0,58.08,-1
67,44.14,-164.44,331.00,0,58.26,-1
68,44.31,-164.31,331.00,0,58.26,-1
69,44.47,-164.21,334.00,0,58.78,-1
70,44.64,-163.82,337.00,0,59.31,-1
71,44.80,-163.55,339.00,0,59.66,-1
72,44.96,-162.93,341.00,0,60.02,-1
73,45.12,-162.74,341.00,0,60.02,-1
74,45.29,-162.51,344.00,0,60.54,-1
75,45.45,-162.43,347.00,0,61.07,-1
76,45.61,-161.71,349.00,0,61.42,-1
77,45.77,-161.57,351.00,0,61.78,-1
78,45.93,-160.56,352.00,0,61.95,-1
79,46.09,-160.56,356.00,0,62.66,-1
80,46.25,-159.93,356.00,0,63.01,-1
81,46.41,-158.99,361.00,0,63.54,-1
82,46.73,-157.68,361.00,0,63.54,-1
83,46.89,-157.16,361.00,0,63.54,-1
84,47.04,-157.08,364.00,0,64.06,-1
85,47.20,-156.06,366.00,0,64.42,-1
86,47.36,-155.77,368.00,0,64.77,-1
87,47.51,-155.24,370.00,0,65.12,-1
88,47.67,-154.60,369.00,0,64.94,-1
89,47.82,-154.14,371.00,0,65.30,-1
90,47.97,-153.60,375.00,0,66.00,-1
91,48.13,-152.92,375.00,0,66.00,-1
92,48.28,-152.62,377.00,0,66.35,-1
93,48.43,-151.72,378.00,0,66.53,-1
94,48.58,-151.03,377.00,0,66.35,-1
95,48.73,-150.61,381.00,0,67.06,-1
96,48.88,-149.65,383.00,0,67.41,-1
97,49.03,-148.91,385.00,0,67.76,-1
98,49.33,-147.14,385.00,0,67.76,-1
99,49.47,-146.50,385.00,0,67.76,-1
100,49.62,-146.07,389.00,0,68.46,-1
101,49.62,-145.03,391.00,0,68.82,-1
102,49.76,-144.41,392.00,0,68.99,-1
103,50.05,-143.77,394.00,0,69.34,-1
104,50.19,-142.82,392.00,0,68.99,-1
105,50.34,-142.72,393.00,0,69.17,-1
106,50.48,-141.85,397.00,0,69.87,-1
107,50.62,-140.94,398.00,0,70.05,-1
108,50.76,-140.65,400.00,0,70.40,-1
109,50.90,-139.54,402.00,0,70.75,-1
110,51.04,-138.67,400.00,0,70.40,-1
111,51.18,-138.07,401.00,0,70.58,-1
112,51.31,-137.31,404.00,0,71.10,-1
113,51.45,-136.17,406.00,0,71.46,-1
114,51.59,-135.28,407.00,0,71.63,-1
115,51.72,-134.20,409.00,0,71.98,-1
116,51.85,-132.90,408.00,0,71.63,-1
117,51.98,-131.37,410.00,0,72.16,-1
118,52.12,-131.37,410.00,0,72.51,-1
119,52.38,-129.39,412.00,0,72.51,-1
120,52.51,-128.82,414.00,0,72.86,-1
121,52.63,-127.58,415.00,0,73.04,-1
122,52.63,-126.86,413.00,0,72.69,-1
123,52.76,-126.49,413.00,0,72.69,-1
124,53.01,-126.01,416.00,0,73.22,-1
125,53.14,-125.16,417.00,0,73.39,-1
126,53.26,-124.52,418.00,0,73.57,-1
127,53.26,-123.88,420.00,0,73.92,-1
128,53.39,-122.82,420.00,0,73.92,-1
129,53.51,-122.11,418.00,0,73.57,-1
130,53.63,-121.86,419.00,0,73.74,-1
131,53.75,-121.86,422.00,0,74.27,-1
132,53.87,-121.10,423.00,0,74.45,-1
133,53.99,-119.89,423.00,0,74.45,-1
134,54.11,-119.32,425.00,0,74.80,-1
135,54.23,-118.64,425.00,0,74.80,-1
136,54.35,-117.59,425.00,0,74.62,-1
137,54.47,-116.38,424.00,0,74.62,-1
138,54.58,-116.31,424.00,0,75.15,-1
139,54.70,-115.98,429.00,0,75.50,-1
140,54.81,-114.97,429.00,0,75.50,-1
141,54.93,-114.47,429.00,0,75.68,-1
142,55.04,-113.37,432.00,0,76.03,-1
143,55.27,-112.68,431.00,0,75.86,-1
144,55.27,-112.68,430.00,0,75.68,-1
145,55.49,-112.31,432.00,0,76.03,-1
146,55.60,-111.70,435.00,0,76.56,-1
147,55.71,-111.25,436.00,0,76.74,-1
148,55.83,-110.81,436.00,0,76.74,-1
149,55.94,-110.33,438.00,0,77.09,-1
150,56.05,-109.54,438.00,0,77.09,-1
151,56.15,-108.48,436.00,0,76.74,-1
152,56.26,-108.51,437.00,0,76.91,-1
153,56.37,-108.09,440.00,0,77.44,-1
154,56.48,-107.14,442.00,0,77.79,-1
155,56.58,-106.63,442.00,0,77.79,-1
156,56.69,-106.23,442.00,0,77.79,-1
157,56.80,-105.53,444.00,0,78.14,-1
158,56.90,-104.49,444.00,0,77.79,-1
159,57.00,-103.77,442.00,0,77.79,-1
160,57.21,-103.44,445.00,0,78.32,-1
161,57.21,-102.93,447.00,0,78.67,-1
162,57.31,-102.22,447.00,0,78.67,-1
163,57.52,-102.08,447.00,0,78.67,-1
164,57.62,-102.03,449.00,0,79.02,-1
165,57.72,-101.45,449.00,0,79.02,-1
166,57.82,-101.09,448.00,0,78.85,-1
167,57.92,-101.09,447.00,0,78.67,-1
168,58.03,-101.42,449.00,0,79.02,-1
169,58.13,-101.12,452.00,0,79.55,-1
170,58.23,-100.59,453.00,0,79.73,-1
171,58.33,-100.38,453.00,0,79.73,-1
172,58.43,-100.48,454.00,0,79.90,-1
173,58.53,-100.19,455.00,0,80.08,-1
174,58.63,-99.53,454.00,0,79.73,-1
175,58.73,-99.22,454.00,0,79.90,-1
176,58.93,-99.13,457.00,0,80.43,-1
177,59.02,-98.37,458.00,0,80.61,-1
178,59.12,-97.64,458.00,0,80.61,-1
179,59.22,-97.43,458.00,0,80.61,-1
180,59.32,-97.32,459.00,0,80.78,-1
181,59.41,-96.55,460.00,0,80.96,-1
182,59.51,-95.97,459.00,0,80.78,-1
183,59.60,-95.43,458.00,0,80.61,-1
184,59.70,-95.71,459.00,0,80.78,-1
185,59.80,-95.43,462.00,0,81.31,-1
186,59.89,-94.86,462.00,0,81.31,-1
187,59.98,-94.44,462.00,0,81.31,-1
188,60.08,-94.44,463.00,0,81.49,-1
189,60.17,-94.37,464.00,0,81.66,-1
190,60.27,-93.88,465.00,0,81.84,-1
191,60.36,-93.62,464.00,0,81.66,-1
192,60.45,-93.82,463.00,0,81.49,-1
193,60.55,-93.92,464.00,0,81.66,-1
194,60.64,-94.12,467.00,0,82.37,-1
195,60.74,-93.81,468.00,0,82.37,-1
196,60.83,-93.54,468.00,0,82.37,-1
197,61.02,-93.23,469.00,0,82.54,-1
198,61.11,-92.84,470.00,0,82.72,-1
199,61.20,-92.26,469.00,0,82.54,-1
200,61.29,-92.04,467.00,0,82.19,-1
201,61.39,-92.32,468.00,0,82.37,-1
202,61.48,-92.59,471.00,0,82.90,-1
203,61.57,-91.75,473.00,0,83.25,-1
204,61.66,-91.04,472.00,0,83.07,-1
205,61.75,-91.12,472.00,0,83.07,-1
206,61.84,-90.53,473.00,0,83.25,-1
207,61.93,-90.04,474.00,0,83.42,-1
208,62.02,-89.17,473.00,0,83.25,-1
209,62.11,-88.75,471.00,0,82.90,-1
210,62.20,-89.25,471.00,0,82.90,-1
211,62.29,-89.14,473.00,0,83.25,-1
212,62.38,-89.03,475.00,0,83.60,-1
213,62.47,-88.59,476.00,0,83.78,-1
214,62.56,-88.27,475.00,0,83.60,-1
215,62.64,-88.39,475.00,0,83.60,-1
216,62.73,-88.30,476.00,0,83.78,-1
217,62.82,-87.98,477.00,0,83.95,-1
218,62.91,-87.29,475.00,0,83.60,-1
219,63.00,-87.61,474.00,0,83.42,-1
220,63.08,-87.89,475.00,0,83.60,-1
221,63.17,-88.57,477.00,0,83.95,-1
222,63.26,-88.06,479.00,0,84.30,-1
223,63.35,-88.14,479.00,0,84.13,-1
224,63.44,-87.77,478.00,0,84.30,-1
225,63.52,-88.26,479.00,0,84.30,-1
226,63.61,-87.92,479.00,0,84.30,-1
227,63.70,-87.43,478.00,0,84.13,-1
228,63.87,-87.14,477.00,0,83.95,-1
229,63.87,-87.37,478.00,0,84.13,-1
230,63.96,-87.45,480.00,0,84.48,-1
231,64.05,-86.89,481.00,0,84.66,-1
232,64.22,-86.65,481.00,0,84.66,-1
233,64.31,-86.53,481.00,0,84.66,-1
234,64.39,-86.76,482.00,0,84.83,-1
235,64.48,-85.96,483.00,0,85.01,-1
236,64.57,-85.56,482.00,0,84.83,-1
237,64.65,-85.04,480.00,0,84.48,-1
238,64.74,-85.17,480.00,0,84.48,-1
239,64.82,-85.67,481.00,0,84.66,-1
240,64.91,-85.70,483.00,0,85.01,-1
241,64.99,-85.41,484.00,0,85.18,-1
242,65.08,-85.09,484.00,0,85.18,-1
243,65.16,-85.81,484.00,0,85.18,-1
244,65.25,-85.92,485.00,0,85.36,-1
245,65.34,-85.47,485.00,0,85.36,-1
246,65.42,-85.47,484.00,0,85.18,-1
247,65.51,-85.47,483.00,0,85.01,-1
248,65.68,-86.38,485.00,0,85.36,-1
249,65.77,-86.72,488.00,0,85.89,-1
250,65.77,-86.21,488.00,0,85.89,-1
251,65.85,-86.21,488.00,0,85.89,-1
252,66.03,-86.53,488.00,0,85.89,-1
253,66.11,-87.18,488.00,0,85.89,-1
254,66.11,-86.59,489.00,0,86.06,-1
255,66.29,-86.32,489.00,0,86.06,-1
256,66.29,-85.92,487.00,0,85.71,-1
257,66.37,-86.20,487.00,0,85.71,-1
258,66.54,-86.44,489.00,0,86.06,-1
259,66.63,-86.00,491.00,0,86.42,-1
260,66.72,-85.29,491.00,0,86.42,-1
261,66.80,-84.77,491.00,0,86.42,-1
262,66.89,-84.98,490.00,0,86.24,-1
263,66.97,-84.78,491.00,0,86.42,-1
264,67.05,-84.31,491.00,0,86.42,-1
265,67.14,-83.72,490.00,0,86.24,-1
266,67.22,-83.09,488.00,0,85.89,-1
267,67.30,-83.72,488.00,0,85.89,-1
268,67.39,-83.83,489.00,0,86.06,-1
269,67.47,-83.44,491.00,0,86.42,-1
270,67.56,-83.19,492.00,0,86.59,-1
271,67.64,-82.92,491.00,0,86.42,-1
272,67.72,-83.12,490.00,0,86.24,-1
273,67.80,-83.58,491.00,0,86.42,-1
274,67.89,-83.56,491.00,0,86.42,-1
275,67.97,-83.17,489.00,0,86.06,-1
276,68.05,-83.34,489.00,0,86.06,-1
277,68.14,-83.86,489.00,0,86.24,-1
278,68.22,-84.53,490.00,0,86.59,-1
279,68.39,-84.17,493.00,0,86.77,-1
280,68.39,-84.40,492.00,0,86.59,-1
281,68.48,-84.50,492.00,0,86.59,-1
282,68.65,-84.89,492.00,0,86.59,-1
283,68.73,-84.92,493.00,0,86.77,-1
284,68.82,-84.24,493.00,0,86.77,-1
285,68.82,-84.36,491.00,0,86.42,-1
286,68.98,-84.77,490.00,0,86.24,-1
287,69.07,-85.15,491.00,0,86.42,-1
288,69.15,-85.40,493.00,0,86.77,-1
289,69.24,-84.63,494.00,0,86.94,-1
290,69.32,-84.44,493.00,0,86.77,-1
291,69.41,-84.43,493.00,0,86.77,-1
292,69.49,-84.58,493.00,0,86.77,-1
293,69.58,-84.39,494.00,0,86.94,-1
294,69.66,-83.70,493.00,0,86.77,-1
295,69.74,-83.60,491.00,0,86.42,-1
296,69.83,-84.49,491.00,0,86.42,-1
297,69.91,-84.49,491.00,0,86.94,-1
298,70.08,-84.70,495.00,0,87.12,-1
299,70.17,-84.54,494.00,0,86.94,-1
300,70.25,-84.84,494.00,0,86.94,-1
301,70.25,-84.86,494.00,0,86.94,-1
302,70.34,-85.25,495.00,0,87.12,-1
303,70.51,-84.68,495.00,0,87.12,-1
304,70.59,-84.82,493.00,0,86.77,-1
305,70.68,-85.40,492.00,0,86.59,-1
306,70.76,-86.03,493.00,0,86.77,-1
307,70.85,-86.70,495.00,0,87.12,-1
308,70.94,-86.20,496.00,0,87.30,-1
309,71.02,-86.45,496.00,0,87.30,-1
310,71.11,-86.31,495.00,0,87.12,-1
311,71.20,-86.83,496.00,0,87.30,-1
312,71.28,-86.48,497.00,0,87.47,-1
313,71.37,-85.95,496.00,0,87.30,-1
314,71.45,-85.78,494.00,0,86.94,-1
315,71.54,-86.21,493.00,0,86.77,-1
316,71.63,-86.72,494.00,0,86.94,-1
317,71.71,-86.79,496.00,0,87.30,-1
318,71.80,-86.41,497.00,0,87.47,-1
319,71.89,-86.00,496.00,0,87.30,-1
320,71.97,-86.34,496.00,0,87.30,-1
321,72.06,-86.04,496.00,0,87.30,-1
322,72.14,-85.99,496.00,0,87.30,-1
323,72.23,-85.02,495.00,0,87.12,-1
324,72.31,-84.94,493.00,0,86.77,-1
325,72.40,-85.26,493.00,0,86.77,-1
326,72.49,-85.71,494.00,0,86.94,-1
327,72.57,-85.83,495.00,0,87.12,-1
328,72.66,-85.32,496.00,0,87.30,-1
329,72.74,-85.65,495.00,0,86.94,-1
330,72.83,-85.78,495.00,0,87.12,-1
331,72.91,-86.10,495.00,0,87.12,-1
332,73.00,-85.46,494.00,0,86.94,-1
333,73.17,-85.46,492.00,0,86.59,-1
334,73.26,-85.70,491.00,0,86.42,-1
335,73.34,-86.48,493.00,0,86.77,-1
336,73.43,-86.20,495.00,0,87.12,-1
337,73.52,-86.32,495.00,0,87.12,-1
338,73.60,-85.96,494.00,0,86.94,-1
339,73.69,-86.59,493.00,0,86.77,-1
340,73.77,-86.58,494.00,0,86.94,-1
341,73.86,-86.17,494.00,0,86.94,-1
342,73.95,-85.64,492.00,0,86.59,-1
343,74.03,-85.54,490.00,0,86.24,-1
344,74.12,-85.83,490.00,0,86.24,-1
345,74.20,-85.75,491.00,0,86.59,-1
346,74.29,-85.75,492.00,0,86.59,-1
347,74.37,-84.96,491.00,0,86.42,-1
348,74.46,-84.96,491.00,0,86.42,-1
349,74.54,-84.96,490.00,0,86.24,-1
350,74.63,-84.57,491.00,0,86.42,-1
351,74.80,-83.51,489.00,0,86.06,-1
352,74.80,-83.51,487.00,0,85.71,-1
353,74.97,-83.91,487.00,0,85.71,-1
354,74.97,-83.67,488.00,0,85.89,-1
355,75.13,-83.89,489.00,0,86.06,-1
356,75.22,-83.22,489.00,0,86.06,-1
357,75.30,-82.97,488.00,0,85.89,-1
358,75.38,-83.37,487.00,0,85.71,-1
359,75.47,-83.52,487.00,0,85.71,-1
360,75.55,-83.33,487.00,0,85.71,-1
361,75.63,-82.93,486.00,0,85.54,-1
362,75.71,-82.75,484.00,0,85.18,-1
363,75.80,-83.07,483.00,0,85.01,-1
364,75.88,-83.58,484.00,0,85.18,-1
365,75.96,-83.47,486.00,0,85.54,-1
366,76.05,-83.02,486.00,0,85.54,-1
367,76.13,-82.80,485.00,0,85.36,-1
368,76.21,-82.86,484.00,0,85.18,-1
369,76.30,-83.02,484.00,0,85.18,-1
370,76.38,-82.97,484.00,0,85.18,-1
371,76.46,-82.43,483.00,0,85.01,-1
372,76.54,-81.80,481.00,0,84.48,-1
373,76.63,-82.68,480.00,0,84.48,-1
374,76.71,-82.68,482.00,0,84.83,-1
375,76.87,-81.92,482.00,0,84.83,-1
376,76.95,-81.36,481.00,0,84.66,-1
377,77.04,-81.02,480.00,0,84.48,-1
378,77.12,-81.05,479.00,0,84.30,-1
379,77.20,-81.01,479.00,0,84.30,-1
380,77.28,-80.43,479.00,0,84.30,-1
381,77.36,-79.88,477.00,0,83.95,-1
382,77.44,-79.70,475.00,0,83.60,-1
383,77.52,-80.20,474.00,0,83.42,-1
384,77.60,-80.65,475.00,0,83.60,-1
385,77.68,-80.51,476.00,0,83.78,-1
386,77.76,-79.86,476.00,0,83.78,-1
387,77.84,-79.62,475.00,0,83.60,-1
388,77.92,-79.81,474.00,0,83.25,-1
389,78.00,-80.00,474.00,0,83.42,-1
390,78.08,-79.93,474.00,0,83.42,-1
391,78.16,-79.33,470.00,0,82.72,-1
392,78.24,-79.83,469.00,0,82.54,-1
393,78.32,-80.58,469.00,0,82.54,-1
394,78.40,-81.12,470.00,0,82.72,-1
395,78.56,-80.88,471.00,0,82.90,-1
396,78.64,-80.71,470.00,0,82.72,-1
397,78.72,-80.82,469.00,0,82.54,-1
398,78.80,-81.16,468.00,0,82.37,-1
399,78.80,-81.14,468.00,0,82.37,-1
400,78.96,-81.03,468.00,0,82.37,-1
401,79.04,-80.73,467.00,0,82.19,-1
402,79.13,-80.90,464.00,0,81.66,-1
403,79.21,-81.41,463.00,0,81.49,-1
404,79.29,-82.06,465.00,0,81.84,-1
405,79.37,-82.35,466.00,0,82.02,-1
406,79.45,-82.18,466.00,0,82.02,-1
407,79.54,-81.99,464.00,0,81.66,-1
408,79.62,-82.36,464.00,0,81.66,-1
409,79.70,-82.75,463.00,0,81.49,-1
410,79.78,-82.32,463.00,0,81.49,-1
411,79.87,-82.33,463.00,0,81.49,-1
412,79.95,-82.33,461.00,0,81.14,-1
413,80.03,-82.66,459.00,0,80.78,-1
414,80.11,-83.58,460.00,0,81.14,-1
415,80.20,-84.35,461.00,0,81.31,-1
416,80.28,-84.22,462.00,0,81.31,-1
417,80.37,-84.81,461.00,0,81.14,-1
418,80.45,-85.23,460.00,0,80.96,-1
419,80.63,-86.47,461.00,0,81.14,-1
420,80.63,-86.47,461.00,0,81.14,-1
421,80.71,-86.55,458.00,0,80.61,-1
422,80.80,-86.81,457.00,0,80.43,-1
423,80.89,-87.53,458.00,0,80.61,-1
424,81.06,-89.62,460.00,0,80.96,-1
425,81.06,-89.87,461.00,0,81.14,-1
426,81.15,-90.71,460.00,0,80.96,-1
427,81.25,-91.16,460.00,0,80.96,-1
428,81.34,-91.97,460.00,0,80.96,-1
429,81.43,-91.97,461.00,0,81.14,-1
430,81.61,-92.04,459.00,0,80.78,-1
431,81.70,-92.31,457.00,0,80.43,-1
432,81.80,-93.25,457.00,0,80.43,-1
433,81.80,-93.25,459.00,0,80.78,-1
434,81.99,-93.59,460.00,0,80.96,-1
435,82.08,-93.76,459.00,0,80.78,-1
436,82.17,-94.23,459.00,0,80.78,-1
437,82.27,-94.73,459.00,0,80.78,-1
438,82.36,-94.53,459.00,0,80.78,-1
439,82.46,-94.30,458.00,0,80.61,-1
440,82.55,-94.30,455.00,0,80.08,-1
441,82.65,-95.18,455.00,0,80.08,-1
442,82.74,-95.75,457.00,0,80.43,-1
443,82.84,-95.77,458.00,0,80.61,-1
444,82.93,-95.90,457.00,0,80.43,-1
445,83.03,-96.71,456.00,0,80.26,-1
446,83.13,-97.46,456.00,0,80.26,-1
447,83.32,-98.00,455.00,0,80.08,-1
448,83.32,-98.60,453.00,0,79.73,-1
449,83.52,-99.61,453.00,0,79.73,-1
450,83.62,-100.18,455.00,0,80.08,-1
451,83.72,-100.39,456.00,0,80.26,-1
452,83.82,-100.84,455.00,0,80.08,-1
453,83.93,-101.61,455.00,0,80.08,-1
454,84.03,-102.26,455.00,0,80.08,-1
455,84.13,-102.33,454.00,0,79.90,-1
456,84.23,-102.60,452.00,0,79.38,-1
457,84.34,-103.47,451.00,0,79.73,-1
458,84.44,-103.90,454.00,0,79.90,-1
459,84.54,-104.02,453.00,0,79.73,-1
460,84.65,-104.60,453.00,0,79.73,-1
461,84.86,-105.06,454.00,0,79.90,-1
462,84.96,-104.95,453.00,0,79.73,-1
463,85.07,-105.03,451.00,0,79.38,-1
464,85.17,-105.79,450.00,0,79.20,-1
465,85.28,-106.56,451.00,0,79.38,-1
466,85.39,-106.61,453.00,0,79.73,-1
467,85.49,-106.69,452.00,0,79.55,-1
468,85.60,-107.43,451.00,0,79.38,-1
469,85.71,-108.01,452.00,0,79.55,-1
470,85.82,-107.99,452.00,0,79.55,-1
471,85.93,-108.72,450.00,0,79.20,-1
472,86.03,-109.45,449.00,0,79.02,-1
473,86.14,-110.29,451.00,0,79.38,-1
474,86.26,-110.79,452.00,0,79.55,-1
475,86.37,-110.75,452.00,0,79.55,-1
476,86.48,-111.79,451.00,0,79.38,-1
477,86.59,-111.90,452.00,0,79.55,-1
478,86.70,-112.34,451.00,0,79.38,-1
479,86.81,-112.44,449.00,0,79.02,-1
480,86.93,-113.89,449.00,0,79.02,-1
481,87.04,-114.06,452.00,0,79.55,-1
482,87.16,-114.19,452.00,0,79.55,-1
483,87.27,-114.63,451.00,0,79.38,-1
484,87.39,-115.06,451.00,0,79.38,-1
485,87.50,-115.32,452.00,0,79.55,-1
486,87.62,-115.12,448.00,0,78.85,-1
487,87.73,-116.11,451.00,0,79.38,-1
488,87.85,-117.15,452.00,0,79.55,-1
489,87.97,-117.24,450.00,0,79.20,-1
490,88.20,-118.76,451.00,0,79.38,-1
491,88.32,-119.24,451.00,0,79.38,-1
492,88.44,-119.37,450.00,0,79.20,-1
493,88.56,-120.40,448.00,0,78.85,-1
494,88.68,-121.62,450.00,0,79.20,-1
495,88.81,-122.26,452.00,0,79.55,-1
496,88.93,-123.06,450.00,0,79.20,-1
497,89.05,-123.97,451.00,0,79.38,-1
498,89.18,-124.61,452.00,0,79.55,-1
499,89.30,-124.77,450.00,0,79.20,-1
500,89.43,-125.61,449.00,0,79.02,-1
501,89.56,-126.56,451.00,0,79.38,-1
502,89.68,-127.34,452.00,0,79.38,-1
503,89.81,-127.74,451.00,0,79.55,-1
504,89.94,-128.58,452.00,0,79.55,-1
505,90.07,-129.01,450.00,0,79.20,-1
506,90.20,-130.00,450.00,0,79.20,-1
507,90.33,-130.86,453.00,0,79.73,-1
508,90.46,-131.52,453.00,0,79.73,-1
509,90.59,-131.52,453.00,0,79.73,-1
510,90.86,-133.33,455.00,0,80.08,-1
511,90.99,-133.87,453.00,0,79.73,-1
512,91.12,-134.80,452.00,0,79.55,-1
513,91.26,-136.02,455.00,0,80.08,-1
514,91.40,-136.81,456.00,0,80.26,-1
515,91.53,-137.68,455.00,0,80.08,-1
516,91.67,-138.76,456.00,0,80.26,-1
517,91.81,-139.42,456.00,0,80.26,-1
518,91.95,-139.92,454.00,0,79.90,-1
519,92.09,-141.27,457.00,0,80.43,-1
520,92.24,-141.85,459.00,0,80.78,-1
521,92.38,-142.23,459.00,0,80.78,-1
522,92.52,-143.69,459.00,0,80.78,-1
523,92.66,-143.69,457.00,0,80.43,-1
524,92.81,-145.27,459.00,0,80.78,-1
525,93.10,-145.60,461.00,0,81.14,-1
526,93.10,-146.40,461.00,0,81.14,-1
527,93.25,-147.41,463.00,0,81.49,-1
528,93.54,-148.09,461.00,0,81.14,-1
529,93.69,-149.02,460.00,0,80.96,-1
530,93.84,-150.23,462.00,0,81.31,-1
531,93.99,-150.74,463.00,0,81.49,-1
532,94.14,-151.71,464.00,0,81.66,-1
533,94.30,-152.55,465.00,0,81.84,-1
534,94.45,-153.13,463.00,0,81.49,-1
535,94.60,-154.29,463.00,0,81.49,-1
536,94.76,-154.90,465.00,0,81.84,-1
537,94.91,-155.43,465.00,0,81.84,-1
538,95.07,-156.10,467.00,0,82.19,-1
539,95.23,-156.61,466.00,0,82.02,-1
540,95.38,-157.23,464.00,0,81.66,-1
541,95.54,-158.57,468.00,0,82.37,-1
542,95.70,-159.27,469.00,0,82.54,-1
543,95.86,-159.99,469.00,0,82.54,-1
544,96.02,-160.91,469.00,0,82.54,-1
545,96.18,-161.65,468.00,0,82.37,-1
546,96.35,-163.12,470.00,0,82.72,-1
547,96.51,-163.94,472.00,0,83.07,-1
548,96.68,-164.97,473.00,0,83.25,-1
549,96.84,-165.50,474.00,0,83.42,-1
550,97.01,-166.03,473.00,0,83.25,-1
551,97.17,-167.27,476.00,0,83.78,-1
552,97.34,-167.76,476.00,0,83.78,-1
553,97.68,-168.94,478.00,0,84.13,-1
554,97.85,-169.27,477.00,0,83.95,-1
555,98.02,-170.05,477.00,0,83.95,-1
556,98.19,-170.74,480.00,0,84.48,-1
557,98.36,-171.42,480.00,0,84.48,-1
558,98.53,-172.20,481.00,0,84.66,-1
559,98.71,-172.66,479.00,0,84.30,-1
560,98.88,-173.65,480.00,0,84.48,-1
561,99.05,-174.51,482.00,0,84.83,-1
562,99.23,-175.28,483.00,0,85.01,-1
563,99.41,-176.08,484.00,0,85.18,-1
564,99.58,-176.36,483.00,0,85.01,-1
565,99.76,-177.27,485.00,0,85.36,-1
