cnt,pos,speed,DTorque,DAC,STorque,Force
1,-79.0125,0.5042,62,0,0,27
3,-79.0083,0.2861,63,0,0,28
5,-79.0071,0.2801,63,0,0,28
7,-79.0063,0.273,63,0,0,28
9,-79.0058,0.2754,63,0,0,28
11,-79.0052,0.2718,62,0,0,27
13,-79.0047,0.2468,62,0,0,27
15,-79.004,0.2348,62,0,0,27
17,-79.0035,0.2062,62,0,0,27
19,-79.003,0.1836,62,0,0,27
21,-79.0026,0.1562,62,0,0,27
23,-79.0023,0.1311,62,0,0,27
25,-79.0021,0.1049,63,0,0,28
27,-79.002,0.0751,63,0,0,28
29,-79.0018,0.0596,63,0,0,28
31,-79.0017,0.0489,63,0,0,28
33,-79.0015,0.0405,64,0,0,28
35,-79.0014,0.0381,63,0,0,28
37,-79.0014,0.0393,64,0,0,28
39,-79.0013,0.0405,63,0,0,28
41,-79.0012,0.0346,63,0,0,28
43,-79.0012,0.0298,63,0,0,28
45,-79.0011,0.0322,63,0,0,28
47,-79.001,0.031,63,0,0,28
49,-79.0009,0.0334,63,0,0,28
51,-79.0008,0.0346,63,0,0,28
53,-79.0008,0.0381,63,0,0,28
55,-79.0007,0.0334,63,0,0,28
57,-79.0006,0.0358,63,0,0,28
59,-79.0005,0.0393,63,0,0,28
61,-79.0005,0.0381,63,0,0,28
63,-79.0004,0.037,63,0,0,28
65,-79.0003,0.0381,63,0,0,28
67,-79.0002,0.037,62,0,0,27
69,-79.0001,0.031,62,0,0,27
71,-79.0001,0.0226,63,0,0,28
73,-79,0.0274,63,0,0,28
75,-79,0.0215,63,0,0,28
77,-78.9999,0.0203,63,0,0,28
79,-78.9999,0.0167,63,0,0,28
81,-78.9999,0.0143,63,0,0,28
83,-78.9998,0.0107,63,0,0,28
85,-78.9998,0.0119,62,0,0,27
87,-78.9998,0.0083,63,0,0,28
89,-78.9998,0.006,63,0,0,28
91,-78.9997,0.0119,62,0,0,27
93,-78.9997,0.0083,63,0,0,28
95,-78.9997,0.0072,63,0,0,28
97,-78.9997,0.0095,62,0,0,27
99,-78.9997,0.0119,62,0,0,27
101,-78.9996,0.0119,62,0,0,27
103,-78.9996,0.0107,62,0,0,27
105,-78.9996,0.0119,62,0,0,27
107,-78.9996,0.0131,62,0,0,27
109,-78.9995,0.0083,62,0,0,27
111,-78.9995,0.006,62,0,0,27
113,-78.9995,0.0012,62,0,0,27
115,-78.9995,0.006,62,0,0,27
117,-78.9995,0.006,62,0,0,27
119,-78.9995,0.0048,62,0,0,27
121,-78.9995,0.0012,62,0,0,27
123,-78.9995,0.0012,62,0,0,27
125,-78.9995,0,62,0,0,27
127,-78.9995,0.0012,62,0,0,27
129,-78.9995,0.0012,62,0,0,27
131,-78.9995,0.0024,62,0,0,27
133,-78.9995,0,62,0,0,27
135,-78.9995,0.0036,62,0,0,27
137,-78.9995,0.006,62,0,0,27
139,-78.9994,0.0072,62,0,0,27
141,-78.9994,0.0048,62,0,0,27
143,-78.9994,0,62,0,0,27
145,-78.9994,0.0024,62,0,0,27
147,-78.9994,0.0024,62,0,0,27
149,-78.9994,0.0036,62,0,0,27
151,-78.9994,0.006,62,0,0,27
153,-78.9994,0.0024,62,0,0,27
155,-78.9994,0.0012,62,0,0,27
157,-78.9994,-0.0024,62,0,0,27
159,-78.9994,0.0024,62,0,0,27
161,-78.9994,0.0036,62,0,0,27
163,-78.9994,0.0024,62,0,0,27
165,-78.9994,-0.0024,62,0,0,27
167,-78.9994,0.0012,62,0,0,27
169,-78.9994,-0.0024,62,0,0,27
171,-78.9994,0.0024,62,0,0,27
173,-78.9994,0,62,0,0,27
175,-78.9994,0.0012,61,0,0,27
177,-78.9994,-0.0036,62,0,0,27
179,-78.9994,0,61,0,0,27
181,-78.9994,0.0012,61,0,0,27
183,-78.9994,-0.0012,61,0,0,27
185,-78.9994,-0.0048,61,0,0,27
187,-78.9994,-0.0024,61,0,0,27
189,-78.9994,0.0024,61,0,0,27
191,-78.9994,0,61,0,0,27
193,-78.9994,0,61,0,0,27
195,-78.9994,0.0012,62,0,0,27
197,-78.9994,0.0012,61,0,0,27
199,-78.9994,0.0012,61,0,0,27
201,-78.9994,0.0024,61,0,0,27
203,-78.9994,0.0048,61,0,0,27
205,-78.9994,0.0012,61,0,0,27
207,-78.9994,0,61,0,0,27
209,-78.9994,-0.0024,61,0,0,27
211,-78.9994,0.0012,61,0,0,27
213,-78.9994,0.0024,61,0,0,27
215,-78.9994,0.0012,61,0,0,27
217,-78.9994,-0.0036,61,0,0,27
219,-78.9994,-0.0024,61,0,0,27
221,-78.9994,-0.0024,61,0,0,27
223,-78.9994,0.0012,61,0,0,27
225,-78.9994,0.0012,61,0,0,27
227,-78.9994,0.0012,61,0,0,27
229,-78.9994,-0.0012,61,0,0,27
231,-78.9994,-0.0012,61,0,0,27
233,-78.9994,-0.0024,61,0,0,27
235,-78.9994,-0.0024,61,0,0,27
237,-78.9994,0.0036,61,0,0,27
239,-78.9994,0.0024,61,0,0,27
241,-78.9994,0.0036,61,0,0,27
243,-78.9994,0,61,0,0,27
245,-78.9994,-0.0036,61,0,0,27
247,-78.9994,-0.0012,61,0,0,27
249,-78.9994,-0.0024,61,0,0,27
251,-78.9994,0.0024,61,0,0,27
253,-78.9994,-0.0012,61,0,0,27
255,-78.9994,-0.0024,61,0,0,27
257,-78.9994,-0.0024,61,0,0,27
259,-78.9994,0.0024,61,0,0,27
261,-78.9994,0.0036,61,0,0,27
263,-78.9994,0.0012,61,0,0,27
265,-78.9994,-0.0012,61,0,0,27
267,-78.9994,0,60,0,0,27
269,-78.9994,-0.0024,61,0,0,27
271,-78.9994,0.0012,60,0,0,27
273,-78.9994,0.0024,60,0,0,27
275,-78.9994,0,60,0,0,27
277,-78.9994,0.0012,61,0,0,27
279,-78.9994,-0.0048,60,0,0,27
281,-78.9994,0.0012,60,0,0,27
283,-78.9994,0.0012,60,0,0,27
285,-78.9994,0.0012,60,0,0,27
287,-78.9994,-0.0024,60,0,0,27
289,-78.9994,-0.0036,60,0,0,27
291,-78.9994,0,60,0,0,27
293,-78.9994,0.0036,60,0,0,27
295,-78.9994,0.006,60,0,0,27
297,-78.9994,0,60,0,0,27
299,-78.9994,-0.0048,60,0,0,27
301,-78.9994,-0.0048,60,0,0,27
303,-78.9994,0.0024,60,0,0,27
305,-78.9994,0,60,0,0,27
307,-78.9994,0.0024,60,0,0,27
309,-78.9994,0.0012,60,0,0,27
311,-78.9994,0.0012,60,0,0,27
313,-78.9994,-0.0024,60,0,0,27
315,-78.9994,-0.0036,60,0,0,27
317,-78.9994,0.0024,60,0,0,27
319,-78.9994,0.0012,60,0,0,27
321,-78.9994,0,60,0,0,27
323,-78.9994,0,60,0,0,27
325,-78.9994,-0.0024,60,0,0,27
327,-78.9994,0,60,0,0,27
329,-78.9994,0,60,0,0,27
331,-78.9994,-0.0024,60,0,0,27
333,-78.9994,-0.0012,60,0,0,27
335,-78.9994,-0.0012,60,0,0,27
337,-78.9994,-0.0012,60,0,0,27
339,-78.9994,0.0024,60,0,0,27
341,-78.9994,-0.0036,60,0,0,27
343,-78.9994,-0.0012,60,0,0,27
345,-78.9994,-0.0012,60,0,0,27
347,-78.9994,-0.0024,60,0,0,27
349,-78.9994,0.0036,60,0,0,27
351,-78.9994,-0.0036,60,0,0,27
353,-78.9994,-0.0024,60,0,0,27
355,-78.9994,-0.0024,59,0,0,26
357,-78.9994,0.0012,59,0,0,26
359,-78.9994,0,60,0,0,27
361,-78.9994,0,60,0,0,27
363,-78.9994,-0.0036,60,0,0,27
365,-78.9994,-0.0012,60,0,0,27
367,-78.9994,0,60,0,0,27
369,-78.9994,0.0012,59,0,0,26
371,-78.9994,-0.0036,59,0,0,26
373,-78.9994,-0.0024,59,0,0,26
375,-78.9994,-0.0048,59,0,0,26
377,-78.9994,-0.0024,59,0,0,26
379,-78.9994,0,60,0,0,27
381,-78.9994,0.0048,60,0,0,27
383,-78.9994,0.0012,59,0,0,26
385,-78.9994,-0.0024,59,0,0,26
387,-78.9994,-0.0036,59,0,0,26
389,-78.9994,0.0012,59,0,0,26
391,-78.9994,0,59,0,0,26
393,-78.9994,-0.0024,59,0,0,26
395,-78.9994,0.0024,59,0,0,26
397,-78.9994,0.0024,59,0,0,26
399,-78.9994,0,59,0,0,26
401,-78.9994,0.0036,59,0,0,26
403,-78.9994,-0.0024,59,0,0,26
405,-78.9994,-0.0036,59,0,0,26
407,-78.9994,0,59,0,0,26
409,-78.9994,0.0012,59,0,0,26
411,-78.9994,-0.0024,59,0,0,26
413,-78.9995,-0.0024,59,0,0,26
415,-78.9995,0.0012,59,0,0,26
417,-78.9995,0.0024,59,0,0,26
419,-78.9995,0.0012,59,0,0,26
421,-78.9994,0.0012,59,0,0,26
423,-78.9995,-0.006,59,0,0,26
425,-78.9995,-0.0036,59,0,0,26
427,-78.9995,0,59,0,0,26
429,-78.9995,0,59,0,0,26
431,-78.9995,0.0024,59,0,0,26
433,-78.9995,0.0036,59,0,0,26
435,-78.9995,0,59,0,0,26
437,-78.9995,-0.0036,59,0,0,26
439,-78.9995,0.0024,59,0,0,26
441,-78.9995,0.0024,59,0,0,26
443,-78.9995,0,59,0,0,26
445,-78.9995,-0.0024,59,0,0,26
447,-78.9995,0,59,0,0,26
449,-78.9995,-0.0012,59,0,0,26
451,-78.9995,-0.0012,59,0,0,26
453,-78.9995,-0.0036,59,0,0,26
455,-78.9995,-0.0024,59,0,0,26
457,-78.9995,0.0012,59,0,0,26
459,-78.9995,0.0036,59,0,0,26
461,-78.9995,0,59,0,0,26
463,-78.9995,-0.0036,59,0,0,26
465,-78.9995,0,59,0,0,26
467,-78.9995,0,59,0,0,26
469,-78.9995,-0.0012,58,0,0,26
471,-78.9995,-0.0048,59,0,0,26
473,-78.9995,-0.006,58,0,0,26
475,-78.9995,0.0012,59,0,0,26
477,-78.9995,0.0012,58,0,0,26
479,-78.9995,0.0036,59,0,0,26
481,-78.9995,-0.0024,58,0,0,26
483,-78.9995,0,59,0,0,26
485,-78.9995,0,59,0,0,26
487,-78.9995,0.0012,58,0,0,26
489,-78.9995,0.0036,59,0,0,26
491,-78.9995,0.0036,58,0,0,26
493,-78.9995,-0.006,58,0,0,26
495,-78.9995,-0.0036,58,0,0,26
497,-78.9995,0,58,0,0,26
499,-78.9995,-0.0012,58,0,0,26
501,-78.9995,-0.0048,58,0,0,26
503,-78.9995,0,58,0,0,26
505,-78.9995,0,58,0,0,26
507,-78.9995,-0.0012,58,0,0,26
509,-78.9995,0,58,0,0,26
511,-78.9995,0,58,0,0,26
513,-78.9995,0,58,0,0,26
515,-78.9995,-0.0012,58,0,0,26
517,-78.9995,0.0036,58,0,0,26
519,-78.9995,0.0036,58,0,0,26
521,-78.9995,0,58,0,0,26
523,-78.9995,-0.0048,58,0,0,26
525,-78.9995,0,58,0,0,26
527,-78.9995,-0.0012,58,0,0,26
529,-78.9995,0.0036,58,0,0,26
531,-78.9995,-0.0024,58,0,0,26
533,-78.9995,-0.0024,58,0,0,26
535,-78.9995,0,58,0,0,26
537,-78.9995,-0.0012,58,0,0,26
539,-78.9995,-0.0012,58,0,0,26
541,-78.9995,0.0012,58,0,0,26
543,-78.9995,-0.0012,58,0,0,26
545,-78.9995,-0.0012,58,0,0,26
547,-78.9995,0.0012,58,0,0,26
549,-78.9995,0,58,0,0,26
551,-78.9995,-0.0048,58,0,0,26
553,-78.9995,-0.0012,58,0,0,26
555,-78.9995,-0.0036,58,0,0,26
557,-78.9995,0,58,0,0,26
559,-78.9995,0.0036,58,0,0,26
561,-78.9995,-0.0024,58,0,0,26
563,-78.9995,-0.0036,58,0,0,26
565,-78.9995,-0.006,58,0,0,26
567,-78.9995,-0.0024,58,0,0,26
569,-78.9995,-0.0012,58,0,0,26
571,-78.9995,0.0012,58,0,0,26
573,-78.9995,0,58,0,0,26
575,-78.9995,0.0024,58,0,0,26
577,-78.9995,-0.0036,58,0,0,26
579,-78.9995,-0.006,58,0,0,26
581,-78.9996,-0.0012,58,0,0,26
583,-78.9995,-0.0036,58,0,0,26
585,-78.9995,0.0036,58,0,0,26
587,-78.9995,0.0036,58,0,0,26
589,-78.9995,-0.0024,58,0,0,26
591,-78.9996,-0.0024,58,0,0,26
593,-78.9996,0,58,0,0,26
595,-78.9996,0.0048,58,0,0,26
597,-78.9996,0.0036,58,0,0,26
599,-78.9996,0.0012,58,0,0,26
601,-78.9995,-0.0036,57,0,0,25
603,-78.9996,0.0012,58,0,0,26
605,-78.9996,0.0024,58,0,0,26
607,-78.9996,0,57,0,0,25
609,-78.9996,-0.0072,57,0,0,25
611,-78.9996,-0.0048,57,0,0,25
613,-78.9996,-0.0012,57,0,0,25
615,-78.9996,0.0024,58,0,0,26
617,-78.9996,0.0012,58,0,0,26
619,-78.9996,0.0024,57,0,0,25
621,-78.9996,-0.0036,57,0,0,25
623,-78.9996,0,57,0,0,25
625,-78.9996,0.0036,58,0,0,26
627,-78.9996,0,57,0,0,25
629,-78.9996,0.0024,57,0,0,25
631,-78.9996,0,57,0,0,25
633,-78.9996,-0.0024,57,0,0,25
635,-78.9996,-0.0024,57,0,0,25
637,-78.9996,0,57,0,0,25
639,-78.9996,-0.0012,57,0,0,25
641,-78.9996,0.0012,57,0,0,25
643,-78.9996,-0.0012,57,0,0,25
645,-78.9996,0.0036,57,0,0,25
647,-78.9996,0,57,0,0,25
649,-78.9996,-0.0024,57,0,0,25
651,-78.9996,0,57,0,0,25
653,-78.9996,0.0036,57,0,0,25
655,-78.9996,0,57,0,0,25
657,-78.9996,-0.0072,57,0,0,25
659,-78.9996,0.0012,57,0,0,25
661,-78.9996,0.0036,57,0,0,25
663,-78.9996,-0.0036,57,0,0,25
665,-78.9996,0.0024,57,0,0,25
667,-78.9996,0.0024,57,0,0,25
669,-78.9996,-0.0024,57,0,0,25
671,-78.9996,-0.0036,57,0,0,25
673,-78.9996,0.0036,57,0,0,25
675,-78.9996,-0.0012,57,0,0,25
677,-78.9996,-0.006,57,0,0,25
679,-78.9996,-0.0012,57,0,0,25
681,-78.9996,-0.0036,57,0,0,25
683,-78.9996,0,57,0,0,25
685,-78.9996,-0.0036,57,0,0,25
687,-78.9996,0.0024,57,0,0,25
689,-78.9996,-0.0012,57,0,0,25
691,-78.9996,-0.0036,57,0,0,25
693,-78.9996,-0.0036,57,0,0,25
695,-78.9996,0,57,0,0,25
697,-78.9996,-0.0036,57,0,0,25
699,-78.9996,-0.0012,57,0,0,25
701,-78.9996,0.0024,57,0,0,25
703,-78.9996,0.0036,57,0,0,25
705,-78.9996,0.0012,57,0,0,25
707,-78.9996,0,57,0,0,25
709,-78.9996,0.0024,57,0,0,25
711,-78.9996,0.0012,57,0,0,25
713,-78.9996,-0.0024,57,0,0,25
715,-78.9996,-0.0012,57,0,0,25
717,-78.9996,0.0012,57,0,0,25
719,-78.9996,-0.0036,57,0,0,25
721,-78.9996,-0.0012,57,0,0,25
723,-78.9996,-0.0036,57,0,0,25
725,-78.9996,0.0048,57,0,0,25
727,-78.9996,0.0012,57,0,0,25
729,-78.9996,0.0024,57,0,0,25
731,-78.9996,-0.0012,57,0,0,25
733,-78.9996,-0.0072,57,0,0,25
735,-78.9996,0.0012,57,0,0,25
737,-78.9996,0.0024,57,0,0,25
739,-78.9996,0,57,0,0,25
741,-78.9996,0.0012,57,0,0,25
743,-78.9996,-0.0012,57,0,0,25
745,-78.9996,-0.0024,57,0,0,25
747,-78.9996,0,57,0,0,25
749,-78.9997,-0.0024,57,0,0,25
751,-78.9997,-0.0012,57,0,0,25
753,-78.9997,0.0012,57,0,0,25
755,-78.9997,0.0012,56,0,0,25
757,-78.9997,-0.0036,57,0,0,25
759,-78.9997,0.0012,57,0,0,25
761,-78.9997,0.0024,57,0,0,25
763,-78.9997,0.0012,57,0,0,25
765,-78.9997,-0.0072,57,0,0,25
767,-78.9997,-0.0048,57,0,0,25
769,-78.9997,0,57,0,0,25
771,-78.9997,0.0036,56,0,0,25
773,-78.9997,0.0048,57,0,0,25
775,-78.9997,-0.0012,57,0,0,25
777,-78.9997,0.0012,57,0,0,25
779,-78.9997,0.0036,56,0,0,25
781,-78.9997,0,56,0,0,25
783,-78.9997,-0.0036,56,0,0,25
785,-78.9997,0,57,0,0,25
787,-78.9997,-0.0012,56,0,0,25
789,-78.9997,0,56,0,0,25
791,-78.9997,-0.0012,56,0,0,25
793,-78.9997,0.0024,57,0,0,25
795,-78.9997,0.0024,56,0,0,25
797,-78.9997,-0.0036,56,0,0,25
799,-78.9997,-0.0048,56,0,0,25
801,-78.9997,-0.0024,56,0,0,25
803,-78.9997,0.0012,56,0,0,25
805,-78.9997,0.0036,56,0,0,25
807,-78.9997,-0.0012,56,0,0,25
809,-78.9997,0,56,0,0,25
811,-78.9997,-0.0024,56,0,0,25
813,-78.9997,0.0036,56,0,0,25
815,-78.9997,-0.0036,56,0,0,25
817,-78.9997,-0.0012,56,0,0,25
819,-78.9997,0.0012,56,0,0,25
821,-78.9997,0,56,0,0,25
823,-78.9997,0.0024,56,0,0,25
825,-78.9997,-0.0024,56,0,0,25
827,-78.9997,-0.0048,56,0,0,25
829,-78.9997,-0.0024,56,0,0,25
831,-78.9997,0.0024,56,0,0,25
833,-78.9997,0,56,0,0,25
835,-78.9997,0.0036,56,0,0,25
837,-78.9997,-0.0036,56,0,0,25
839,-78.9997,-0.0012,56,0,0,25
841,-78.9997,0,56,0,0,25
843,-78.9997,0.0024,56,0,0,25
845,-78.9997,0,56,0,0,25
847,-78.9997,0,56,0,0,25
849,-78.9997,-0.0036,56,0,0,25
851,-78.9997,0.0012,56,0,0,25
853,-78.9997,-0.0012,56,0,0,25
855,-78.9997,-0.0036,56,0,0,25
857,-78.9997,-0.0012,56,0,0,25
859,-78.9997,0.0024,56,0,0,25
861,-78.9997,0,56,0,0,25
863,-78.9997,-0.0036,56,0,0,25
865,-78.9997,-0.0024,56,0,0,25
867,-78.9997,-0.0024,56,0,0,25
869,-78.9997,0,56,0,0,25
871,-78.9997,0.0072,56,0,0,25
873,-78.9997,0.0024,56,0,0,25
875,-78.9997,-0.0024,56,0,0,25
877,-78.9997,-0.0012,56,0,0,25
879,-78.9997,0.0024,56,0,0,25
881,-78.9997,-0.0012,56,0,0,25
883,-78.9997,-0.006,56,0,0,25
885,-78.9997,0.0012,56,0,0,25
887,-78.9997,0.0036,56,0,0,25
889,-78.9997,-0.0036,56,0,0,25
891,-78.9997,-0.0012,56,0,0,25
893,-78.9997,-0.0024,56,0,0,25
895,-78.9997,-0.0036,56,0,0,25
897,-78.9997,0.0024,56,0,0,25
899,-78.9997,0,56,0,0,25
901,-78.9997,0,56,0,0,25
903,-78.9997,0,56,0,0,25
905,-78.9997,-0.0012,56,0,0,25
907,-78.9997,-0.0024,56,0,0,25
909,-78.9997,0,56,0,0,25
911,-78.9997,0.0012,56,0,0,25
913,-78.9997,0,56,0,0,25
915,-78.9997,0.0012,56,0,0,25
917,-78.9997,0.0024,56,0,0,25
919,-78.9997,-0.0012,56,0,0,25
921,-78.9997,-0.0012,56,0,0,25
923,-78.9997,-0.0012,56,0,0,25
925,-78.9997,0,56,0,0,25
927,-78.9997,-0.0024,56,0,0,25
929,-78.9997,0,56,0,0,25
931,-78.9997,0.0036,56,0,0,25
933,-78.9997,-0.0012,56,0,0,25
935,-78.9997,-0.0012,56,0,0,25
937,-78.9998,-0.0036,56,0,0,25
939,-78.9998,-0.0036,56,0,0,25
941,-78.9998,-0.0012,56,0,0,25
943,-78.9998,0.0012,56,0,0,25
945,-78.9998,-0.0024,56,0,0,25
947,-78.9998,0.0012,56,0,0,25
949,-78.9998,-0.0024,56,0,0,25
951,-78.9998,0.0012,56,0,0,25
953,-78.9998,0,56,0,0,25
955,-78.9998,0.0012,56,0,0,25
957,-78.9998,0,56,0,0,25
959,-78.9998,-0.0024,56,0,0,25
961,-78.9998,0.0024,56,0,0,25
963,-78.9998,0.0012,56,0,0,25
965,-78.9998,-0.0012,56,0,0,25
967,-78.9998,-0.0048,56,0,0,25
969,-78.9998,0,56,0,0,25
971,-78.9998,-0.0036,56,0,0,25
973,-78.9998,0,56,0,0,25
975,-78.9998,0.0012,56,0,0,25
977,-78.9998,0,56,0,0,25
979,-78.9998,0,56,0,0,25
981,-78.9998,0,55,0,0,24
983,-78.9998,0,56,0,0,25
985,-78.9998,0.0012,56,0,0,25
987,-78.9998,0.0012,55,0,0,24
989,-78.9998,0,56,0,0,25
991,-78.9998,0,55,0,0,24
993,-78.9998,-0.0048,56,0,0,25
995,-78.9998,0,56,0,0,25
997,-78.9998,-0.0012,56,0,0,25
999,-78.9998,-0.0036,55,0,0,24
1001,-78.9998,0,56,0,0,25
1003,-78.9998,-0.0012,56,0,0,25
1005,-78.9998,0.0024,56,0,0,25
1007,-78.9998,0,55,0,0,24
1009,-78.9998,-0.0048,56,0,0,25
1011,-78.9998,-0.0048,55,0,0,24
1013,-78.9998,-0.0024,55,0,0,24
1015,-78.9998,0.0024,56,0,0,25
1017,-78.9998,-0.0012,55,0,0,24
1019,-78.9998,0.0012,56,0,0,25
1021,-78.9998,-0.0012,55,0,0,24
1023,-78.9998,-0.0012,56,0,0,25
1025,-78.9998,-0.0012,55,0,0,24
1027,-78.9998,0,55,0,0,24
1029,-78.9998,0.0012,56,0,0,25
1031,-78.9998,0,55,0,0,24
1033,-78.9998,-0.0024,55,0,0,24
1035,-78.9998,0,55,0,0,24
1037,-78.9998,0,56,0,0,25
1039,-78.9998,0.0012,55,0,0,24
1041,-78.9998,0.0024,55,0,0,24
1043,-78.9998,0.0012,55,0,0,24
1045,-78.9998,-0.0048,55,0,0,24
1047,-78.9998,-0.0012,55,0,0,24
1049,-78.9998,0.0024,55,0,0,24
1051,-78.9998,0,55,0,0,24
1053,-78.9998,0.0012,55,0,0,24
1055,-78.9998,0.0012,55,0,0,24
1057,-78.9998,0,55,0,0,24
1059,-78.9998,0.0036,55,0,0,24
1061,-78.9998,-0.0012,55,0,0,24
1063,-78.9998,-0.0012,55,0,0,24
1065,-78.9998,0.0024,55,0,0,24
1067,-78.9998,0,55,0,0,24
1069,-78.9998,-0.0012,55,0,0,24
1071,-78.9998,0.0024,55,0,0,24
1073,-78.9998,-0.0024,55,0,0,24
1075,-78.9998,-0.0012,55,0,0,24
1077,-78.9998,-0.0036,55,0,0,24
1079,-78.9998,-0.0012,55,0,0,24
1081,-78.9998,-0.0024,55,0,0,24
1083,-78.9998,0.0024,55,0,0,24
1085,-78.9998,-0.0012,55,0,0,24
1087,-78.9998,-0.0036,55,0,0,24
1089,-78.9998,-0.0036,55,0,0,24
1091,-78.9998,0,55,0,0,24
1093,-78.9998,0.0024,55,0,0,24
1095,-78.9998,0.0024,55,0,0,24
1097,-78.9998,0.0012,55,0,0,24
1099,-78.9998,-0.0012,55,0,0,24
1101,-78.9998,0,55,0,0,24
1103,-78.9998,-0.0024,55,0,0,24
1105,-78.9998,0.0024,55,0,0,24
1107,-78.9998,0.0012,55,0,0,24
1109,-78.9998,-0.0012,55,0,0,24
1111,-78.9998,-0.0024,55,0,0,24
1113,-78.9998,-0.0012,55,0,0,24
1115,-78.9998,-0.0012,55,0,0,24
1117,-78.9998,0.0012,55,0,0,24
1119,-78.9998,-0.0024,55,0,0,24
1121,-78.9998,-0.0012,55,0,0,24
1123,-78.9998,0.0024,55,0,0,24
1125,-78.9998,-0.0012,55,0,0,24
1127,-78.9998,0.0024,55,0,0,24
1129,-78.9998,-0.0012,55,0,0,24
1131,-78.9998,0.0012,55,0,0,24
1133,-78.9998,0.0012,55,0,0,24
1135,-78.9998,0.0012,55,0,0,24
1137,-78.9998,0.0024,55,0,0,24
1139,-78.9998,-0.0024,55,0,0,24
1141,-78.9999,-0.0048,55,0,0,24
1143,-78.9999,0.0012,55,0,0,24
1145,-78.9998,0.0024,55,0,0,24
1147,-78.9999,-0.0024,55,0,0,24
1149,-78.9999,0.0012,55,0,0,24
1151,-78.9999,0.0012,55,0,0,24
1153,-78.9999,-0.0012,55,0,0,24
1155,-78.9999,0.0036,55,0,0,24
1157,-78.9999,-0.0024,55,0,0,24
1159,-78.9999,0.0024,55,0,0,24
1161,-78.9999,0.0048,55,0,0,24
1163,-78.9999,0.0036,55,0,0,24
1165,-78.9999,-0.0024,55,0,0,24
1167,-78.9999,0,55,0,0,24
1169,-78.9999,-0.0012,55,0,0,24
1171,-78.9999,-0.0012,55,0,0,24
1173,-78.9999,0.0024,55,0,0,24
1175,-78.9999,0,55,0,0,24
1177,-78.9999,0.0012,55,0,0,24
1179,-78.9999,0,55,0,0,24
1181,-78.9999,-0.0012,55,0,0,24
1183,-78.9999,0.0012,55,0,0,24
1185,-78.9999,0,55,0,0,24
1187,-78.9999,0,55,0,0,24
1189,-78.9999,-0.0012,55,0,0,24
1191,-78.9999,-0.0012,55,0,0,24
1193,-78.9999,0.0012,55,0,0,24
1195,-78.9999,0,55,0,0,24
1197,-78.9999,-0.0024,55,0,0,24
1199,-78.9999,0,55,0,0,24
1201,-78.9999,-0.0024,55,0,0,24
1203,-78.9999,0.0012,55,0,0,24
1205,-78.9999,-0.0024,55,0,0,24
1207,-78.9999,-0.0012,55,0,0,24
1209,-78.9999,0,55,0,0,24
1211,-78.9999,-0.0024,55,0,0,24
1213,-78.9999,0.0012,55,0,0,24
1215,-78.9999,-0.0036,55,0,0,24
1217,-78.9999,-0.0012,55,0,0,24
1219,-78.9999,-0.0012,55,0,0,24
1221,-78.9999,-0.0012,55,0,0,24
1223,-78.9999,-0.0024,55,0,0,24
1225,-78.9999,-0.0012,55,0,0,24
1227,-78.9999,-0.0024,55,0,0,24
1229,-78.9999,0,55,0,0,24
1231,-78.9999,0.0012,55,0,0,24
1233,-78.9999,-0.0012,55,0,0,24
1235,-78.9999,-0.0048,55,0,0,24
1237,-78.9999,0,55,0,0,24
1239,-78.9999,0.0036,55,0,0,24
1241,-78.9999,0.006,55,0,0,24
1243,-78.9999,-0.0048,55,0,0,24
1245,-78.9999,-0.0024,55,0,0,24
1247,-78.9999,0,55,0,0,24
1249,-78.9999,0.0048,55,0,0,24
1251,-78.9999,0.0012,55,0,0,24
1253,-78.9999,-0.0036,55,0,0,24
1255,-78.9999,-0.0048,55,0,0,24
1257,-78.9999,0.0012,55,0,0,24
1259,-78.9999,0,55,0,0,24
1261,-78.9999,-0.0012,55,0,0,24
1263,-78.9999,0,55,0,0,24
1265,-78.9999,0.0012,55,0,0,24
1267,-78.9999,0.0012,55,0,0,24
1269,-78.9999,-0.0012,55,0,0,24
1271,-78.9999,-0.0036,55,0,0,24
1273,-78.9999,-0.0036,55,0,0,24
1275,-78.9999,0.0012,55,0,0,24
1277,-78.9999,-0.0012,55,0,0,24
1279,-78.9999,0.0024,55,0,0,24
1281,-78.9999,0.0012,55,0,0,24
1283,-78.9999,-0.0024,55,0,0,24
1285,-78.9999,-0.0036,55,0,0,24
1287,-78.9999,0.0024,55,0,0,24
1289,-78.9999,0,55,0,0,24
1291,-78.9999,0.0012,55,0,0,24
1293,-78.9999,-0.0012,55,0,0,24
1295,-78.9999,-0.0024,55,0,0,24
1297,-78.9999,-0.0107,53,0,0,23
1299,-79,-0.0894,49,0,0,22
1301,-79.0004,-0.2074,40,0,0,18
1303,-79.0022,-0.7438,21,0,0,9
1305,-79.0049,-1.2576,11,0,0,4
1307,-79.0094,-1.7309,0,0,0,0
1309,-79.0162,-2.5629,-3,0,0,-1
1311,-79.0221,-3.2817,-2,0,0,0
1313,-79.0326,-3.7252,3,0,0,1
1315,-79.0404,-4.0828,11,0,0,4
1317,-79.0528,-4.1758,17,0,0,7
1319,-79.0652,-4.0923,22,0,0,9
1321,-79.0733,-3.9123,23,0,0,10
1323,-79.0848,-3.7729,24,0,0,10
1325,-79.0921,-3.5881,24,0,0,10
1327,-79.1027,-3.4164,24,0,0,10
1329,-79.1128,-3.2889,24,0,0,10
1331,-79.1226,-3.2269,25,0,0,11
1333,-79.132,-3.1268,27,0,0,12
1335,-79.1381,-3.0314,29,0,0,13
1337,-79.147,-2.9158,30,0,0,13
1339,-79.1528,-2.7739,32,0,0,14
1341,-79.161,-2.6285,32,0,0,14
1343,-79.1686,-2.4699,33,0,0,14
1345,-79.1733,-2.2029,33,0,0,14
