cnt,pos,speed,DTorque,STorque,Force,Dir
5463,36.09,-17.70,372.00,0,65.47,0
5464,36.11,-17.10,373.00,0,65.65,0
5465,36.13,-16.55,374.00,0,65.82,0
5466,36.14,-16.29,374.00,0,65.82,0
5467,36.16,-15.58,374.00,0,65.82,0
5468,36.17,-15.04,374.00,0,65.82,0
5469,36.19,-14.96,373.00,0,65.65,0
5470,36.20,-14.29,372.00,0,65.47,0
5471,36.22,-14.26,372.00,0,65.47,0
5472,36.23,-14.06,372.00,0,65.47,0
5473,36.25,-14.09,371.00,0,65.30,0
5474,36.26,-14.17,372.00,0,65.47,0
5475,36.27,-14.31,373.00,0,65.65,0
5476,36.29,-14.74,375.00,0,66.00,0
5477,36.30,-14.81,377.00,0,66.35,0
5478,36.32,-15.17,380.00,0,66.88,0
5479,36.34,-15.56,383.00,0,67.41,0
5480,36.35,-15.77,386.00,0,67.94,0
5481,36.37,-16.33,391.00,0,68.82,0
5482,36.38,-16.39,395.00,0,69.52,0
5483,36.40,-16.62,398.00,0,70.05,0
5484,36.42,-17.00,403.00,0,70.93,0
5485,36.43,-16.93,407.00,0,71.63,0
5486,36.45,-16.94,411.00,0,72.34,0
5487,36.47,-16.92,414.00,0,72.86,0
5488,36.48,-16.56,418.00,0,73.57,0
5489,36.50,-16.16,420.00,0,73.92,0
5490,36.52,-15.82,422.00,0,74.27,0
5491,36.53,-15.08,422.00,0,74.27,0
5492,36.55,-14.50,422.00,0,74.27,0
5493,36.56,-13.85,422.00,0,74.27,0
5494,36.57,-12.56,420.00,0,73.92,0
5495,36.60,-11.81,418.00,0,73.57,0
5496,36.61,-11.29,415.00,0,73.04,0
5497,36.62,-10.80,413.00,0,72.69,0
5498,36.63,-10.39,411.00,0,72.34,-1
5499,36.64,-10.17,409.00,0,71.98,-1
5500,36.65,-9.65,406.00,0,71.46,-1
5501,36.67,-9.62,405.00,0,71.28,-1
5502,36.68,-9.60,405.00,0,71.28,-1
5503,36.69,-9.73,405.00,0,71.28,-1
5504,36.70,-9.60,405.00,0,71.28,-1
5505,36.71,-9.85,406.00,0,71.46,-1
5506,36.72,-9.91,407.00,0,71.63,-1
5507,36.73,-10.01,408.00,0,72.16,-1
5508,36.75,-10.15,412.00,0,72.51,-1
5509,36.76,-10.41,414.00,0,72.86,-1
5510,36.76,-10.43,416.00,0,73.22,-1
5511,36.77,-10.54,418.00,0,73.57,-1
5512,36.78,-10.58,421.00,0,74.10,-1
5513,36.79,-10.58,421.00,0,74.45,-1
5514,36.80,-10.45,423.00,0,74.62,-1
5515,36.81,-10.51,424.00,0,74.98,-1
5516,36.83,-10.43,428.00,0,75.33,-1
5517,36.84,-10.35,429.00,0,75.50,-1
5518,36.85,-10.11,430.00,0,75.68,-1
5519,36.86,-9.99,431.00,0,75.86,-1
5520,36.87,-9.66,432.00,0,76.03,-1
5521,36.88,-9.53,432.00,0,76.03,-1
5522,36.89,-9.31,432.00,0,76.03,-1
5523,36.90,-8.76,432.00,0,76.03,-1
5524,36.91,-8.64,431.00,0,75.86,-1
5525,36.92,-8.33,431.00,0,75.86,-1
5526,36.92,-7.88,430.00,0,75.68,-1
5527,36.93,-7.66,428.00,0,75.33,-1
5528,36.94,-7.37,427.00,0,75.15,-1
5529,36.95,-6.93,425.00,0,74.80,-1
5530,36.95,-6.81,422.00,0,74.27,-1
5531,36.96,-6.52,422.00,0,73.92,-1
5532,36.97,-6.40,420.00,0,73.74,-1
5533,36.97,-6.16,419.00,0,73.57,-1
5534,36.98,-6.21,418.00,0,73.22,-1
5535,36.98,-6.09,416.00,0,73.22,-1
5536,36.99,-6.09,414.00,0,72.86,-1
5537,37.00,-6.14,414.00,0,72.86,-1
5538,37.01,-6.18,413.00,0,72.69,-1
5539,37.02,-6.36,413.00,0,72.69,-1
5540,37.02,-6.30,413.00,0,72.69,-1
5541,37.03,-6.66,413.00,0,72.69,-1
5542,37.04,-6.85,414.00,0,72.86,-1
5543,37.04,-7.01,414.00,0,72.86,-1
5544,37.05,-7.21,415.00,0,73.04,-1
5545,37.06,-7.60,416.00,0,73.22,-1
5546,37.07,-7.93,417.00,0,73.39,-1
5547,37.07,-8.05,419.00,0,73.74,-1
5548,37.08,-8.64,420.00,0,73.92,-1
5549,37.09,-9.02,424.00,0,74.62,-1
5550,37.10,-9.23,427.00,0,75.15,-1
5551,37.11,-9.85,429.00,0,75.50,-1
5552,37.12,-10.15,429.00,0,75.50,-1
5553,37.13,-10.66,432.00,0,76.56,-1
5554,37.14,-11.12,435.00,0,76.56,-1
5555,37.15,-12.02,441.00,0,77.62,-1
5556,37.17,-12.42,444.00,0,78.14,-1
5557,37.19,-12.89,447.00,0,78.67,-1
5558,37.20,-13.25,450.00,0,79.20,-1
5559,37.22,-13.64,453.00,0,79.73,-1
5560,37.23,-14.04,456.00,0,80.26,-1
5561,37.25,-14.33,459.00,0,80.78,-1
5562,37.26,-14.68,461.00,0,81.14,-1
5563,37.28,-14.71,464.00,0,81.66,-1
5564,37.29,-15.10,466.00,0,82.02,-1
5565,37.31,-14.94,468.00,0,82.37,-1
5566,37.32,-14.91,469.00,0,82.54,-1
5567,37.34,-14.94,470.00,0,82.72,-1
5568,37.35,-14.47,470.00,0,82.72,-1
5569,37.36,-14.40,470.00,0,82.72,-1
5570,37.38,-13.89,469.00,0,82.54,-1
5571,37.39,-13.57,467.00,0,82.19,-1
5572,37.40,-13.09,465.00,0,81.84,-1
5573,37.42,-12.71,462.00,0,81.31,-1
5574,37.43,-12.39,459.00,0,80.78,-1
5575,37.45,-11.66,448.00,0,78.85,-1
5576,37.48,-11.61,445.00,0,78.32,-1
5577,37.49,-11.79,442.00,0,77.79,-1
5578,37.50,-11.79,439.00,0,77.26,-1
5579,37.51,-12.29,438.00,0,77.09,-1
5580,37.53,-12.51,436.00,0,76.74,-1
5581,37.54,-13.19,435.00,0,76.56,-1
5582,37.55,-13.50,435.00,0,76.56,-1
5583,37.57,-14.21,435.00,0,76.56,-1
5584,37.58,-14.80,436.00,0,76.74,-1
5585,37.60,-15.40,437.00,0,76.91,-1
5586,37.61,-16.23,439.00,0,77.26,-1
5587,37.63,-16.64,441.00,0,77.62,-1
5588,37.65,-17.30,443.00,0,77.97,-1
5589,37.66,-17.93,445.00,0,78.32,-1
5590,37.68,-18.43,448.00,0,78.85,-1
5591,37.70,-18.73,450.00,0,79.20,-1
5592,37.72,-19.05,452.00,0,79.55,-1
5593,37.74,-19.43,453.00,0,79.73,-1
5594,37.76,-19.39,454.00,0,79.90,-1
5595,37.78,-19.17,455.00,0,80.08,-1
5596,37.80,-19.01,454.00,0,79.90,-1
5597,37.82,-18.77,453.00,0,79.73,-1
5598,37.83,-18.53,451.00,0,79.38,-1
5599,37.85,-18.02,448.00,0,78.85,-1
5600,37.87,-17.71,445.00,0,78.32,-1
5601,37.89,-17.79,441.00,0,77.62,-1
5602,37.91,-17.53,438.00,0,77.09,-1
5603,37.92,-17.70,435.00,0,76.56,-1
5604,37.94,-18.19,432.00,0,76.03,-1
5605,37.96,-18.71,430.00,0,75.68,-1
5606,37.98,-19.29,428.00,0,75.33,-1
5607,38.00,-20.19,428.00,0,75.33,-1
5608,38.02,-21.10,429.00,0,75.50,-1
5609,38.04,-22.27,430.00,0,75.68,-1
5610,38.07,-23.25,433.00,0,76.21,-1
5611,38.09,-24.40,436.00,0,76.74,-1
5612,38.12,-25.32,440.00,0,77.44,-1
5613,38.14,-26.35,444.00,0,78.14,-1
5614,38.17,-27.06,448.00,0,78.85,-1
5615,38.20,-27.77,452.00,0,79.55,-1
5616,38.23,-28.13,458.00,0,80.61,-1
5617,38.28,-28.24,460.00,0,80.96,-1
5618,38.31,-28.10,461.00,0,81.14,-1
5619,38.34,-27.87,460.00,0,80.96,-1
5620,38.34,-27.87,459.00,0,80.78,-1
5621,38.39,-28.04,458.00,0,80.61,-1
5622,38.42,-28.45,457.00,0,80.43,-1
5623,38.45,-29.00,456.00,0,80.26,-1
5624,38.48,-29.70,456.00,0,80.26,-1
5625,38.51,-30.40,456.00,0,80.26,-1
5626,38.54,-31.14,457.00,0,80.43,-1
5627,38.57,-32.04,458.00,0,80.61,-1
5628,38.61,-32.63,459.00,0,80.78,-1
5629,38.64,-32.88,461.00,0,81.14,-1
5630,38.67,-33.00,462.00,0,81.31,-1
5631,38.71,-32.97,461.00,0,81.14,-1
5632,38.74,-32.72,460.00,0,80.96,-1
5633,38.77,-32.54,458.00,0,80.26,-1
5634,38.80,-33.15,454.00,0,79.90,-1
5635,38.84,-33.72,452.00,0,79.55,-1
5636,38.87,-34.65,451.00,0,79.38,-1
5637,38.91,-34.65,451.00,0,79.55,-1
5638,38.94,-35.50,452.00,0,79.73,-1
5639,38.98,-36.73,453.00,0,80.08,-1
5640,39.05,-38.52,458.00,0,80.61,-1
5641,39.09,-38.91,461.00,0,81.14,-1
5642,39.13,-39.45,462.00,0,81.31,-1
5643,39.17,-39.26,464.00,0,81.66,-1
5644,39.21,-39.56,464.00,0,81.66,-1
5645,39.25,-39.81,463.00,0,81.49,-1
5646,39.29,-40.32,463.00,0,81.49,-1
5647,39.33,-41.12,463.00,0,81.49,-1
5648,39.37,-41.69,464.00,0,81.66,-1
5649,39.42,-42.50,464.00,0,81.66,-1
5650,39.46,-43.44,466.00,0,82.02,-1
5651,39.50,-43.85,467.00,0,82.19,-1
5652,39.55,-44.02,468.00,0,82.37,-1
5653,39.59,-44.03,466.00,0,82.02,-1
5654,39.64,-44.40,464.00,0,81.66,-1
5655,39.68,-44.84,463.00,0,81.49,-1
5656,39.73,-45.64,462.00,0,81.31,-1
5657,39.77,-46.46,462.00,0,81.31,-1
5658,39.82,-46.46,462.00,0,81.49,-1
5659,39.91,-48.27,465.00,0,81.84,-1
5660,39.96,-48.82,467.00,0,82.19,-1
5661,40.01,-48.88,468.00,0,82.37,-1
5662,40.06,-48.92,468.00,0,82.37,-1
5663,40.11,-49.10,466.00,0,82.02,-1
5664,40.16,-49.53,465.00,0,81.84,-1
5665,40.21,-50.22,464.00,0,81.66,-1
5666,40.26,-51.04,464.00,0,81.66,-1
5667,40.31,-51.79,464.00,0,81.66,-1
5668,40.36,-52.22,465.00,0,81.84,-1
5669,40.42,-52.65,465.00,0,81.84,-1
5670,40.47,-52.78,462.00,0,81.31,-1
5671,40.52,-53.81,461.00,0,81.14,-1
5672,40.58,-54.68,461.00,0,81.14,-1
5673,40.63,-55.85,461.00,0,81.14,-1
5674,40.69,-56.94,464.00,0,81.66,-1
5675,40.74,-57.63,466.00,0,82.02,-1
5676,40.80,-57.63,466.00,0,82.37,-1
5677,40.86,-57.93,468.00,0,82.54,-1
5678,40.98,-58.69,468.00,0,82.37,-1
5679,41.04,-59.17,468.00,0,82.37,-1
5680,41.10,-60.18,469.00,0,82.54,-1
5681,41.16,-60.95,470.00,0,82.72,-1
5682,41.22,-61.68,471.00,0,82.90,-1
5683,41.28,-61.98,472.00,0,83.07,-1
5684,41.34,-62.18,471.00,0,82.90,-1
5685,41.40,-62.71,469.00,0,82.54,-1
5686,41.47,-63.70,469.00,0,82.54,-1
5687,41.53,-64.81,470.00,0,82.72,-1
5688,41.60,-65.96,472.00,0,83.07,-1
5689,41.67,-66.47,475.00,0,83.60,-1
5690,41.73,-66.73,477.00,0,83.95,-1
5691,41.80,-66.89,476.00,0,83.60,-1
5692,41.87,-67.74,475.00,0,83.60,-1
5693,41.93,-67.74,475.00,0,83.42,-1
5694,42.00,-68.53,475.00,0,83.60,-1
5695,42.07,-68.95,475.00,0,83.42,-1
5696,42.14,-68.80,474.00,0,82.90,-1
5697,42.21,-68.86,467.00,0,82.19,-1
5698,42.35,-70.34,465.00,0,81.84,-1
5699,42.42,-71.30,466.00,0,82.02,-1
5700,42.49,-72.13,467.00,0,82.19,-1
5701,42.57,-72.47,468.00,0,82.37,-1
5702,42.64,-72.54,467.00,0,82.19,-1
5703,42.71,-72.84,465.00,0,81.84,-1
5704,42.78,-73.49,464.00,0,81.66,-1
5705,42.86,-74.17,463.00,0,81.49,-1
5706,42.93,-74.71,463.00,0,81.49,-1
5707,43.01,-74.77,462.00,0,81.31,-1
5708,43.08,-75.06,459.00,0,80.78,-1
5709,43.16,-75.84,457.00,0,80.43,-1
5710,43.24,-77.22,456.00,0,80.26,-1
5711,43.31,-78.38,458.00,0,81.14,-1
5712,43.39,-79.42,461.00,0,81.49,-1
5713,43.47,-79.74,463.00,0,81.49,-1
5714,43.55,-80.39,463.00,0,81.49,-1
5715,43.64,-81.49,464.00,0,81.66,-1
5716,43.72,-82.65,470.00,0,82.72,-1
5717,43.88,-83.48,471.00,0,82.90,-1
5718,43.97,-84.09,470.00,0,82.72,-1
5719,44.05,-84.77,470.00,0,82.72,-1
5720,44.14,-86.40,473.00,0,83.25,-1
5721,44.23,-87.00,477.00,0,83.95,-1
5722,44.31,-87.63,479.00,0,84.30,-1
5723,44.40,-87.67,480.00,0,84.48,-1
5724,44.49,-88.61,481.00,0,84.66,-1
5725,44.58,-88.98,482.00,0,84.83,-1
5726,44.67,-89.37,483.00,0,85.01,-1
5727,44.76,-89.04,482.00,0,84.83,-1
5728,44.85,-89.09,479.00,0,84.30,-1
5729,44.94,-89.79,478.00,0,84.13,-1
5730,45.03,-90.64,478.00,0,84.13,-1
5731,45.12,-90.64,478.00,0,84.13,-1
5732,45.21,-90.54,477.00,0,83.95,-1
5733,45.30,-90.62,474.00,0,83.42,-1
5734,45.39,-91.46,472.00,0,83.07,-1
5735,45.48,-91.52,469.00,0,82.54,-1
5736,45.66,-91.52,465.00,0,81.84,-1
5737,45.76,-91.82,461.00,0,81.14,-1
5738,45.85,-92.74,460.00,0,80.96,-1
5739,45.94,-93.58,460.00,0,80.96,-1
5740,46.04,-93.89,460.00,0,80.96,-1
5741,46.13,-94.23,459.00,0,80.78,-1
5742,46.23,-95.37,458.00,0,80.61,-1
5743,46.32,-96.16,459.00,0,80.78,-1
5744,46.42,-96.78,460.00,0,80.96,-1
5745,46.52,-97.08,458.00,0,80.61,-1
5746,46.61,-98.10,458.00,0,80.61,-1
5747,46.71,-99.17,464.00,0,81.66,-1
5748,46.81,-99.91,465.00,0,81.84,-1
5749,47.01,-100.75,465.00,0,81.84,-1
5750,47.12,-101.52,466.00,0,82.02,-1
5751,47.22,-101.97,468.00,0,82.37,-1
5752,47.22,-101.97,468.00,0,82.37,-1
5753,47.32,-101.85,466.00,0,82.02,-1
5754,47.53,-102.93,466.00,0,82.02,-1
5755,47.63,-103.49,468.00,0,82.37,-1
5756,47.73,-103.46,469.00,0,82.54,-1
5757,47.84,-103.31,466.00,0,82.02,-1
5758,47.94,-103.78,465.00,0,81.84,-1
5759,48.04,-104.17,465.00,0,81.84,-1
5760,48.15,-104.25,463.00,0,81.49,-1
5761,48.25,-104.36,459.00,0,80.78,-1
5762,48.36,-105.15,457.00,0,80.43,-1
5763,48.46,-105.82,458.00,0,80.61,-1
5764,48.57,-106.45,459.00,0,80.78,-1
5765,48.68,-106.89,458.00,0,80.61,-1
5766,48.78,-108.72,460.00,0,80.96,-1
5767,48.89,-109.39,461.00,0,81.14,-1
5768,49.00,-109.79,460.00,0,80.96,-1
5769,49.11,-109.79,460.00,0,81.14,-1
5770,49.22,-111.30,461.00,0,82.02,-1
5771,49.34,-112.13,466.00,0,82.54,-1
5772,49.45,-112.67,469.00,0,82.54,-1
5773,49.56,-113.99,472.00,0,83.07,-1
5774,49.79,-114.24,475.00,0,83.60,-1
5775,49.90,-114.47,475.00,0,83.60,-1
5776,50.02,-114.90,474.00,0,83.42,-1
5777,50.13,-115.69,476.00,0,83.78,-1
5778,50.25,-116.14,479.00,0,84.30,-1
5779,50.37,-115.67,479.00,0,84.30,-1
5780,50.48,-116.20,478.00,0,84.13,-1
5781,50.60,-116.79,479.00,0,84.30,-1
5782,50.72,-116.36,478.00,0,84.13,-1
5783,50.83,-116.76,475.00,0,83.60,-1
5784,50.95,-117.97,475.00,0,83.60,-1
5785,51.07,-118.43,478.00,0,84.13,-1
5786,51.19,-118.72,478.00,0,84.13,-1
5787,51.31,-119.29,480.00,0,84.48,-1
5788,51.43,-120.24,481.00,0,84.66,-1
5789,51.55,-120.70,481.00,0,84.48,-1
5790,51.67,-121.15,481.00,0,84.66,-1
5791,51.79,-122.20,481.00,0,84.66,-1
5792,51.91,-123.47,488.00,0,85.89,-1
5793,52.16,-124.02,489.00,0,86.06,-1
5794,52.29,-124.48,492.00,0,86.59,-1
5795,52.41,-124.51,493.00,0,86.77,-1
5796,52.54,-124.54,490.00,0,86.24,-1
5797,52.66,-125.33,491.00,0,86.42,-1
5798,52.79,-125.64,495.00,0,87.12,-1
5799,52.91,-125.53,495.00,0,87.12,-1
5800,53.04,-125.63,493.00,0,86.77,-1
5801,53.16,-125.86,494.00,0,86.94,-1
5802,53.29,-125.61,492.00,0,86.59,-1
5803,53.41,-125.91,488.00,0,85.89,-1
5804,53.54,-126.61,488.00,0,85.89,-1
5805,53.67,-126.93,490.00,0,86.24,-1
5806,53.80,-127.47,489.00,0,86.06,-1
5807,53.92,-128.90,491.00,0,86.42,-1
5808,54.05,-128.90,491.00,0,86.06,-1
5809,54.18,-128.98,489.00,0,85.89,-1
5810,54.31,-129.90,488.00,0,86.77,-1
5811,54.44,-130.76,493.00,0,87.12,-1
5812,54.57,-131.14,496.00,0,87.30,-1
5813,54.84,-132.51,499.00,0,87.82,-1
5814,54.97,-132.16,500.00,0,88.00,-1
5815,55.10,-132.67,498.00,0,87.65,-1
5816,55.24,-133.41,499.00,0,87.82,-1
5817,55.37,-133.17,502.00,0,88.35,-1
5818,55.50,-133.32,502.00,0,88.35,-1
5819,55.64,-133.73,502.00,0,88.35,-1
5820,55.77,-133.43,502.00,0,88.35,-1
5821,55.90,-133.45,499.00,0,87.82,-1
5822,56.04,-133.95,498.00,0,87.65,-1
5823,56.17,-134.60,500.00,0,88.00,-1
5824,56.31,-134.69,500.00,0,87.82,-1
5825,56.44,-135.02,499.00,0,88.18,-1
5826,56.58,-136.10,500.00,0,88.00,-1
5827,56.71,-136.05,499.00,0,87.82,-1
5828,56.85,-136.97,503.00,0,88.53,-1
5829,56.99,-137.88,503.00,0,88.88,-1
5830,57.13,-138.49,506.00,0,89.06,-1
5831,57.40,-139.57,509.00,0,89.58,-1
5832,57.54,-139.29,509.00,0,89.58,-1
5833,57.68,-139.66,508.00,0,89.41,-1
5834,57.82,-140.32,511.00,0,89.94,-1
5835,57.96,-140.15,513.00,0,90.29,-1
5836,58.10,-140.31,513.00,0,90.29,-1
5837,58.24,-140.39,514.00,0,90.46,-1
5838,58.38,-140.08,512.00,0,90.11,-1
5839,58.53,-140.50,509.00,0,89.58,-1
5840,58.67,-140.98,510.00,0,89.76,-1
5841,58.81,-141.14,511.00,0,89.94,-1
5842,58.95,-141.54,510.00,0,89.76,-1
5843,59.09,-141.97,511.00,0,89.94,-1
5844,59.23,-142.18,511.00,0,89.58,-1
5845,59.38,-143.13,512.00,0,90.11,-1
5846,59.52,-143.90,516.00,0,90.82,-1
5847,59.66,-144.25,516.00,0,90.82,-1
5848,59.81,-144.55,516.00,0,90.82,-1
5849,59.95,-145.13,518.00,0,91.17,-1
5850,60.24,-145.36,517.00,0,90.99,-1
5851,60.39,-145.91,520.00,0,91.52,-1
5852,60.54,-145.86,522.00,0,91.87,-1
5853,60.68,-145.68,521.00,0,91.70,-1
5854,60.83,-145.78,521.00,0,91.70,-1
5855,60.97,-145.45,519.00,0,91.34,-1
5856,61.12,-145.53,515.00,0,90.64,-1
5857,61.26,-146.08,517.00,0,90.99,-1
5858,61.41,-146.19,517.00,0,90.99,-1
5859,61.56,-146.73,516.00,0,90.82,-1
5860,61.70,-146.98,517.00,0,90.99,-1
5861,61.85,-147.11,515.00,0,90.64,-1
5862,62.00,-148.00,514.00,0,90.46,-1
5863,62.15,-148.77,519.00,0,91.34,-1
5864,62.30,-149.06,519.00,0,91.34,-1
5865,62.45,-149.68,521.00,0,91.70,-1
5866,62.60,-149.67,523.00,0,92.05,-1
5867,62.75,-149.58,521.00,0,91.70,-1
5868,62.90,-150.16,522.00,0,91.87,-1
5869,63.05,-150.21,523.00,0,92.05,-1
5870,63.35,-150.24,524.00,0,92.22,-1
5871,63.50,-149.96,522.00,0,91.87,-1
5872,63.65,-149.99,519.00,0,91.34,-1
5873,63.80,-150.62,521.00,0,91.70,-1
5874,63.95,-150.57,521.00,0,91.70,-1
5875,64.10,-151.05,519.00,0,91.34,-1
5876,64.25,-151.63,520.00,0,91.52,-1
5877,64.40,-151.78,519.00,0,91.34,-1
5878,64.56,-152.53,519.00,0,91.34,-1
5879,64.71,-153.14,524.00,0,92.22,-1
5880,65.02,-153.63,524.00,0,92.22,-1
5881,65.02,-153.77,525.00,0,92.40,-1
5882,65.17,-153.89,523.00,0,92.05,-1
5883,65.32,-154.37,526.00,0,92.58,-1
5884,65.48,-154.11,528.00,0,92.93,-1
5885,65.63,-154.11,528.00,0,92.58,-1
5886,65.79,-153.97,526.00,0,92.75,-1
5887,66.09,-153.67,524.00,0,92.22,-1
5888,66.25,-154.12,521.00,0,91.70,-1
5889,66.40,-154.64,523.00,0,92.05,-1
5890,66.56,-154.44,523.00,0,92.05,-1
5891,66.71,-155.08,523.00,0,92.05,-1
5892,66.87,-155.45,523.00,0,92.05,-1
5893,67.02,-155.96,521.00,0,91.70,-1
5894,67.18,-156.72,524.00,0,92.22,-1
5895,67.34,-157.20,527.00,0,92.75,-1
5896,67.49,-157.57,527.00,0,92.75,-1
5897,67.65,-157.97,530.00,0,93.28,-1
5898,67.81,-157.82,529.00,0,93.10,-1
5899,67.97,-158.72,533.00,0,93.81,-1
5900,68.13,-158.62,534.00,0,93.98,-1
5901,68.29,-158.85,535.00,0,94.16,-1
5902,68.44,-158.85,535.00,0,93.98,-1
5903,68.60,-158.29,531.00,0,93.46,-1
5904,68.76,-158.27,533.00,0,93.81,-1
5905,68.92,-159.09,534.00,0,93.98,-1
5906,69.08,-158.98,534.00,0,93.98,-1
5907,69.40,-159.66,534.00,0,93.98,-1
5908,69.56,-159.76,532.00,0,93.63,-1
5909,69.72,-160.85,534.00,0,93.98,-1
5910,69.88,-161.08,537.00,0,94.51,-1
5911,70.04,-161.72,538.00,0,94.69,-1
5912,70.20,-161.63,540.00,0,95.04,-1
5913,70.37,-161.70,539.00,0,94.86,-1
5914,70.53,-161.66,538.00,0,94.69,-1
5915,70.69,-162.18,541.00,0,95.22,-1
5916,70.85,-161.58,541.00,0,95.22,-1
5917,71.01,-161.96,541.00,0,95.22,-1
5918,71.17,-161.56,536.00,0,94.34,-1
5919,71.34,-161.57,537.00,0,94.51,-1
5920,71.50,-161.84,537.00,0,94.51,-1
5921,71.66,-162.14,537.00,0,94.51,-1
5922,71.82,-162.76,536.00,0,94.34,-1
5923,71.98,-162.76,536.00,0,94.34,-1
5924,72.15,-162.72,534.00,0,93.98,-1
5925,72.31,-163.82,537.00,0,94.51,-1
5926,72.64,-164.26,539.00,0,94.86,-1
5927,72.80,-164.51,541.00,0,95.22,-1
5928,72.97,-164.41,539.00,0,94.86,-1
5929,73.13,-165.07,541.00,0,95.22,-1
5930,73.30,-164.44,543.00,0,95.57,-1
5931,73.46,-164.53,543.00,0,95.57,-1
5932,73.63,-164.39,543.00,0,95.57,-1
5933,73.79,-163.94,539.00,0,94.86,-1
5934,73.95,-164.38,538.00,0,94.69,-1
5935,74.12,-164.30,539.00,0,94.86,-1
5936,74.28,-164.43,538.00,0,94.69,-1
5937,74.45,-164.80,538.00,0,94.69,-1
5938,74.61,-165.81,535.00,0,94.16,-1
5939,74.78,-166.00,538.00,0,94.69,-1
5940,74.94,-166.00,538.00,0,94.86,-1
5941,75.11,-166.24,539.00,0,95.04,-1
5942,75.28,-166.83,540.00,0,95.04,-1
5943,75.44,-166.45,539.00,0,94.86,-1
5944,75.61,-166.80,539.00,0,94.86,-1
5945,75.95,-166.92,543.00,0,95.57,-1
5946,76.11,-166.94,543.00,0,95.57,-1
5947,76.28,-166.72,541.00,0,95.22,-1
5948,76.45,-166.94,539.00,0,94.86,-1
5949,76.61,-167.37,541.00,0,95.22,-1
5950,76.78,-167.31,541.00,0,95.22,-1
5951,76.95,-167.92,541.00,0,95.22,-1
5952,77.12,-167.72,541.00,0,95.22,-1
5953,77.28,-168.34,539.00,0,94.86,-1
5954,77.45,-169.10,543.00,0,95.57,-1
5955,77.62,-169.43,544.00,0,95.74,-1
5956,77.79,-169.61,546.00,0,96.10,-1
5957,77.96,-169.51,545.00,0,95.92,-1
5958,78.13,-170.01,547.00,0,96.27,-1
5959,78.30,-169.81,548.00,0,96.45,-1
5960,78.47,-169.85,548.00,0,96.45,-1
5961,78.64,-169.85,547.00,0,96.27,-1
5962,78.81,-169.26,547.00,0,95.74,-1
5963,78.98,-169.25,544.00,0,96.10,-1
5964,79.32,-170.00,546.00,0,96.10,-1
5965,79.49,-170.55,547.00,0,96.27,-1
5966,79.66,-170.57,546.00,0,96.10,-1
5967,79.83,-170.91,545.00,0,95.92,-1
5968,80.00,-171.73,548.00,0,96.45,-1
5969,80.18,-171.96,550.00,0,96.80,-1
5970,80.35,-172.41,552.00,0,97.15,-1
5971,80.52,-172.42,553.00,0,97.33,-1
5972,80.69,-172.43,552.00,0,97.15,-1
5973,80.87,-172.87,555.00,0,97.68,-1
5974,81.04,-172.39,556.00,0,97.86,-1
5975,81.21,-172.51,556.00,0,97.50,-1
5976,81.38,-171.90,551.00,0,96.98,-1
5977,81.55,-172.07,553.00,0,97.33,-1
5978,81.73,-172.07,552.00,0,97.15,-1
5979,81.90,-171.94,552.00,0,97.15,-1
5980,82.07,-172.29,552.00,0,96.80,-1
5981,82.24,-172.31,550.00,0,96.62,-1
5982,82.42,-172.79,552.00,0,97.15,-1
5983,82.76,-173.47,552.00,0,97.15,-1
5984,82.94,-173.85,553.00,0,97.33,-1
5985,83.11,-173.78,552.00,0,97.15,-1
5986,83.28,-174.17,552.00,0,97.15,-1
5987,83.46,-174.37,555.00,0,97.68,-1
5988,83.63,-174.00,555.00,0,97.68,-1
5989,83.81,-174.01,556.00,0,97.86,-1
5990,83.98,-173.50,554.00,0,97.50,-1
5991,84.15,-174.02,552.00,0,97.15,-1
5992,84.33,-174.11,554.00,0,97.50,-1
5993,84.50,-174.05,553.00,0,97.33,-1
5994,84.85,-174.51,551.00,0,96.98,-1
5995,84.85,-175.21,552.00,0,97.15,-1
5996,85.03,-175.60,555.00,0,97.68,-1
5997,85.20,-175.59,556.00,0,97.86,-1
5998,85.38,-175.86,557.00,0,98.03,-1
5999,85.55,-175.46,555.00,0,97.68,-1
6000,85.73,-175.46,555.00,0,97.86,-1
6001,85.90,-176.07,556.00,0,98.21,-1
6002,86.08,-175.70,558.00,0,98.21,-1
6003,86.26,-175.33,556.00,0,97.86,-1
6004,86.61,-174.95,553.00,0,97.33,-1
6005,86.78,-175.34,553.00,0,97.33,-1
6006,86.96,-175.44,554.00,0,97.50,-1
6007,87.13,-175.69,554.00,0,97.50,-1
6008,87.31,-175.73,553.00,0,97.33,-1
6009,87.48,-175.87,550.00,0,96.80,-1
6010,87.66,-176.62,552.00,0,97.15,-1
6011,87.84,-176.87,553.00,0,97.33,-1
