cnt,pos,speed,DTorque,STorque,Force,Dir
1,297.69,-126.88,316.00,0,55.62,-1
2,297.83,-131.96,330.00,0,58.08,-1
3,297.96,-141.40,359.00,0,63.18,-1
4,298.10,-146.08,372.00,0,65.47,-1
5,298.40,-150.91,388.00,0,68.29,-1
6,298.56,-155.39,405.00,0,71.28,-1
7,298.72,-159.59,420.00,0,73.92,-1
8,298.88,-164.58,436.00,0,76.74,-1
9,299.05,-168.37,465.00,0,81.84,-1
10,299.22,-173.20,465.00,0,84.83,-1
11,299.40,-177.58,482.00,0,87.65,-1
12,299.58,-182.01,498.00,0,90.46,-1
13,299.77,-186.39,528.00,0,92.93,-1
14,299.96,-190.84,528.00,0,92.93,-1
15,300.15,-195.64,545.00,0,95.92,-1
16,300.35,-203.98,578.00,0,101.73,-1
17,300.77,-207.94,593.00,0,104.37,-1
18,300.98,-212.18,609.00,0,107.18,-1
19,301.19,-215.69,627.00,0,110.35,-1
20,301.41,-219.27,643.00,0,113.17,-1
21,301.64,-222.42,657.00,0,115.63,-1
22,301.86,-226.44,674.00,0,118.62,-1
23,302.09,-229.66,691.00,0,121.62,-1
24,302.32,-233.02,706.00,0,124.26,-1
25,302.56,-236.13,721.00,0,126.90,-1
26,302.80,-239.93,738.00,0,129.89,-1
27,303.04,-243.07,755.00,0,132.88,-1
28,303.29,-245.56,768.00,0,135.17,-1
29,303.54,-248.37,784.00,0,137.98,-1
30,303.79,-250.89,801.00,0,140.98,-1
31,304.04,-253.05,815.00,0,143.44,-1
32,304.30,-254.63,830.00,0,146.08,-1
33,304.55,-257.09,845.00,0,148.72,-1
34,304.81,-259.20,859.00,0,151.18,-1
35,305.07,-260.82,873.00,0,153.65,-1
36,305.34,-263.61,887.00,0,156.11,-1
37,305.60,-264.90,902.00,0,158.75,-1
38,305.87,-266.36,913.00,0,160.69,-1
39,306.14,-268.10,926.00,0,162.98,-1
40,306.40,-268.66,941.00,0,165.62,-1
41,306.67,-269.67,952.00,0,167.55,-1
42,306.94,-270.31,964.00,0,169.66,-1
43,307.22,-271.05,978.00,0,174.06,-1
44,307.49,-272.90,1001.00,0,176.18,-1
45,307.76,-273.47,1014.00,0,178.46,-1
46,308.03,-274.11,1024.00,0,180.22,-1
47,308.31,-274.14,1035.00,0,182.16,-1
48,308.58,-274.14,1047.00,0,184.27,-1
49,309.13,-273.50,1058.00,0,186.21,-1
50,309.40,-272.82,1067.00,0,187.79,-1
51,309.68,-272.68,1078.00,0,189.73,-1
52,309.95,-271.95,1088.00,0,191.49,-1
53,310.22,-271.11,1096.00,0,192.90,-1
54,310.49,-271.21,1106.00,0,194.66,-1
55,310.76,-270.49,1114.00,0,196.06,-1
56,311.03,-269.12,1122.00,0,197.47,-1
57,311.30,-268.85,1130.00,0,198.88,-1
58,311.57,-266.90,1139.00,0,200.46,-1
59,311.83,-264.75,1145.00,0,201.52,-1
60,312.09,-263.73,1152.00,0,202.75,-1
61,312.36,-262.00,1161.00,0,204.34,-1
62,312.62,-260.49,1167.00,0,205.39,-1
63,312.88,-258.74,1173.00,0,206.45,-1
64,313.13,-257.79,1180.00,0,207.68,-1
65,313.39,-256.25,1186.00,0,208.74,-1
66,313.64,-253.44,1191.00,0,209.62,-1
67,313.89,-251.48,1203.00,0,211.73,-1
68,314.14,-249.12,1207.00,0,212.43,-1
69,314.63,-243.80,1212.00,0,213.31,-1
70,314.87,-240.90,1217.00,0,214.19,-1
71,315.11,-239.01,1221.00,0,214.90,-1
72,315.35,-236.59,1224.00,0,215.42,-1
73,315.58,-234.82,1228.00,0,216.13,-1
74,315.82,-232.11,1232.00,0,216.83,-1
75,316.05,-229.85,1234.00,0,217.71,-1
76,316.27,-227.38,1241.00,0,218.42,-1
77,316.50,-224.44,1244.00,0,218.94,-1
78,316.94,-217.92,1245.00,0,219.12,-1
79,317.15,-215.67,1248.00,0,219.65,-1
80,317.37,-212.36,1252.00,0,220.35,-1
81,317.58,-209.92,1254.00,0,220.70,-1
82,317.78,-206.69,1254.00,0,220.70,-1
83,317.99,-205.10,1256.00,0,221.06,-1
84,318.19,-202.72,1259.00,0,221.58,-1
85,318.39,-199.93,1261.00,0,221.94,-1
86,318.59,-196.72,1262.00,0,222.11,-1
87,318.78,-194.35,1264.00,0,222.46,-1
88,318.97,-191.78,1267.00,0,222.99,-1
89,319.16,-187.97,1268.00,0,223.17,-1
90,319.35,-184.76,1267.00,0,222.99,-1
91,319.53,-180.81,1267.00,0,222.99,-1
92,319.70,-178.58,1269.00,0,223.34,-1
93,319.88,-175.66,1270.00,0,223.52,-1
94,320.05,-172.72,1271.00,0,223.70,-1
95,320.22,-169.77,1270.00,0,223.52,-1
96,320.39,-166.61,1269.00,0,223.34,-1
97,320.55,-164.96,1270.00,0,223.52,-1
98,320.72,-162.64,1270.00,0,223.52,-1
99,320.88,-159.59,1271.00,0,223.70,-1
100,321.03,-157.01,1270.00,0,223.52,-1
101,321.19,-153.28,1269.00,0,223.34,-1
102,321.34,-150.71,1269.00,0,223.34,-1
103,321.49,-148.02,1269.00,0,223.34,-1
104,321.63,-144.54,1269.00,0,223.34,-1
105,321.77,-141.45,1269.00,0,223.34,-1
106,321.91,-137.88,1266.00,0,222.82,-1
107,322.04,-133.55,1264.00,0,222.46,-1
108,322.17,-131.05,1262.00,0,222.11,-1
109,322.30,-128.62,1261.00,0,221.94,-1
110,322.43,-125.38,1261.00,0,221.94,-1
111,322.55,-122.74,1261.00,0,221.94,-1
112,322.67,-120.46,1259.00,0,221.58,-1
113,322.79,-117.32,1256.00,0,220.70,-1
114,322.90,-114.30,1254.00,0,220.53,-1
115,323.02,-110.95,1252.00,0,220.35,-1
116,323.24,-108.28,1252.00,0,220.35,-1
117,323.34,-105.46,1252.00,0,220.35,-1
118,323.44,-103.82,1250.00,0,220.00,-1
119,323.55,-101.45,1248.00,0,219.65,-1
120,323.64,-98.09,1246.00,0,219.30,-1
121,323.74,-95.16,1244.00,0,218.94,-1
122,323.83,-93.32,1243.00,0,218.77,-1
123,323.92,-91.03,1242.00,0,218.59,-1
124,324.01,-88.22,1240.00,0,218.24,-1
125,324.10,-84.52,1238.00,0,217.89,-1
126,324.18,-81.40,1236.00,0,217.54,-1
127,324.26,-79.16,1234.00,0,217.18,-1
128,324.33,-76.83,1231.00,0,216.66,-1
129,324.41,-73.80,1227.00,0,215.95,-1
130,324.48,-70.11,1224.00,0,214.72,-1
131,324.54,-67.06,1220.00,0,214.19,-1
132,324.67,-63.55,1214.00,0,213.66,-1
133,324.67,-62.27,1212.00,0,213.31,-1
134,324.80,-60.43,1210.00,0,212.96,-1
135,324.85,-57.92,1208.00,0,212.61,-1
136,324.91,-55.01,1206.00,0,212.26,-1
137,324.96,-52.53,1203.00,0,211.73,-1
138,325.01,-50.63,1201.00,0,211.38,-1
139,325.06,-49.43,1199.00,0,211.02,-1
140,325.11,-48.65,1197.00,0,210.67,-1
141,325.16,-47.78,1194.00,0,210.14,-1
142,325.20,-46.64,1193.00,0,209.97,-1
143,325.25,-44.74,1191.00,0,209.62,-1
144,325.29,-42.88,1189.00,0,209.26,-1
145,325.33,-40.95,1187.00,0,208.91,-1
146,325.37,-39.42,1184.00,0,208.38,-1
147,325.41,-38.39,1183.00,0,208.21,-1
148,325.45,-38.07,1182.00,0,207.86,-1
149,325.49,-38.02,1181.00,0,207.86,-1
150,325.56,-38.50,1181.00,0,207.86,-1
151,325.60,-38.51,1181.00,0,207.86,-1
152,325.64,-37.42,1182.00,0,208.03,-1
153,325.68,-36.37,1181.00,0,207.86,-1
154,325.71,-34.53,1181.00,0,207.86,-1
155,325.74,-32.77,1180.00,0,207.68,-1
156,325.77,-30.99,1179.00,0,207.50,-1
157,325.80,-29.41,1178.00,0,207.33,-1
158,325.83,-28.02,1176.00,0,206.98,-1
159,325.86,-27.29,1174.00,0,206.62,-1
160,325.89,-26.70,1173.00,0,206.45,-1
161,325.91,-26.50,1172.00,0,206.27,-1
162,325.94,-26.39,1171.00,0,206.10,-1
163,325.96,-26.21,1170.00,0,205.92,-1
164,325.99,-25.87,1170.00,0,205.92,-1
165,326.02,-25.29,1169.00,0,205.57,-1
166,326.04,-24.42,1168.00,0,205.39,-1
167,326.09,-22.07,1165.00,0,205.04,-1
168,326.09,-20.76,1164.00,0,204.86,-1
169,326.13,-19.30,1162.00,0,204.51,-1
170,326.14,-17.65,1160.00,0,204.16,-1
171,326.16,-16.33,1157.00,0,203.63,-1
172,326.18,-15.30,1155.00,0,203.28,-1
173,326.19,-14.08,1153.00,0,202.93,-1
174,326.20,-13.49,1151.00,0,202.58,-1
175,326.22,-12.72,1149.00,0,202.22,-1
176,326.23,-12.53,1147.00,0,201.87,-1
177,326.24,-12.34,1146.00,0,201.70,-1
178,326.25,-12.57,1145.00,0,201.34,-1
179,326.28,-13.28,1143.00,0,201.17,-1
180,326.28,-13.92,1143.00,0,201.17,-1
181,326.31,-14.70,1143.00,0,201.17,-1
182,326.32,-15.56,1143.00,0,201.17,-1
183,326.34,-16.42,1144.00,0,201.34,-1
184,326.36,-17.36,1145.00,0,201.52,-1
185,326.38,-18.26,1147.00,0,201.87,-1
186,326.39,-18.79,1148.00,0,202.05,-1
187,326.41,-19.33,1148.00,0,202.05,-1
188,326.43,-19.55,1149.00,0,202.22,-1
189,326.45,-19.57,1150.00,0,202.40,-1
190,326.47,-18.99,1151.00,0,202.58,-1
191,326.49,-18.31,1151.00,0,202.58,-1
192,326.51,-17.41,1150.00,0,202.40,-1
193,326.52,-16.30,1147.00,0,201.87,-1
194,326.54,-14.95,1146.00,0,201.70,-1
195,326.55,-12.31,1143.00,0,201.17,-1
196,326.58,-11.16,1141.00,0,200.82,-1
197,326.59,-9.75,1138.00,0,200.29,-1
198,326.59,-8.89,1136.00,0,199.94,-1
199,326.60,-7.93,1133.00,0,199.41,-1
200,326.61,-6.92,1130.00,0,198.88,-1
201,326.62,-6.45,1127.00,0,198.35,-1
202,326.62,-5.88,1124.00,0,197.82,-1
203,326.63,-5.56,1121.00,0,197.30,-1
204,326.63,-5.24,1119.00,0,196.94,-1
205,326.64,-5.29,1117.00,0,196.59,-1
206,326.64,-5.38,1115.00,0,196.24,-1
207,326.65,-5.66,1113.00,0,195.89,-1
208,326.65,-5.92,1111.00,0,195.54,-1
209,326.66,-6.44,1110.00,0,195.36,-1
210,326.67,-7.15,1109.00,0,195.18,-1
211,326.68,-7.97,1108.00,0,195.01,-1
212,326.68,-9.94,1108.00,0,195.01,-1
213,326.69,-11.15,1108.00,0,195.01,-1
214,326.72,-12.45,1108.00,0,195.01,-1
215,326.73,-13.92,1109.00,0,195.18,-1
216,326.75,-15.76,1110.00,0,195.36,-1
217,326.77,-17.28,1111.00,0,195.54,-1
218,326.78,-19.05,1113.00,0,195.89,-1
219,326.81,-20.98,1115.00,0,196.24,-1
220,326.83,-22.55,1117.00,0,196.59,-1
221,326.85,-24.01,1118.00,0,196.77,-1
222,326.88,-25.16,1120.00,0,197.12,-1
223,326.90,-26.11,1122.00,0,197.47,-1
224,326.93,-26.78,1123.00,0,197.65,-1
225,326.96,-27.23,1124.00,0,197.82,-1
226,326.98,-27.69,1125.00,0,198.00,-1
227,327.01,-28.09,1126.00,0,198.18,-1
228,327.04,-28.68,1126.00,0,198.18,-1
229,327.07,-29.65,1127.00,0,198.35,-1
230,327.10,-30.99,1128.00,0,198.53,-1
231,327.14,-32.88,1129.00,0,198.70,-1
232,327.17,-35.38,1131.00,0,199.06,-1
233,327.21,-40.75,1136.00,0,199.94,-1
234,327.25,-42.70,1140.00,0,200.64,-1
235,327.29,-42.70,1143.00,0,201.17,-1
236,327.34,-44.49,1146.00,0,201.70,-1
237,327.38,-46.22,1148.00,0,202.05,-1
238,327.43,-46.57,1150.00,0,202.40,-1
239,327.52,-47.02,1152.00,0,202.75,-1
240,327.57,-47.85,1154.00,0,203.10,-1
241,327.62,-49.31,1156.00,0,203.46,-1
242,327.67,-50.92,1157.00,0,203.63,-1
243,327.72,-52.44,1159.00,0,203.98,-1
244,327.78,-53.30,1160.00,0,204.16,-1
245,327.83,-53.90,1161.00,0,204.34,-1
246,327.88,-54.52,1162.00,0,204.51,-1
247,327.94,-55.49,1163.00,0,204.69,-1
248,328.00,-57.36,1165.00,0,205.04,-1
249,328.06,-59.54,1167.00,0,205.39,-1
250,328.12,-62.47,1170.00,0,205.92,-1
251,328.18,-64.37,1173.00,0,206.45,-1
252,328.25,-65.64,1176.00,0,206.98,-1
253,328.31,-65.97,1178.00,0,207.33,-1
254,328.38,-66.31,1181.00,0,207.86,-1
255,328.45,-68.30,1184.00,0,208.38,-1
256,328.52,-68.30,1185.00,0,208.56,-1
257,328.65,-69.05,1185.00,0,208.56,-1
258,328.72,-68.75,1185.00,0,208.56,-1
259,328.79,-68.69,1185.00,0,208.56,-1
260,328.86,-69.26,1185.00,0,208.56,-1
261,328.93,-70.97,1186.00,0,208.74,-1
262,329.00,-72.58,1187.00,0,208.91,-1
263,329.08,-73.28,1189.00,0,209.26,-1
264,329.15,-73.27,1189.00,0,209.26,-1
265,329.22,-72.98,1190.00,0,209.44,-1
266,329.30,-73.25,1191.00,0,209.62,-1
267,329.37,-73.73,1191.00,0,209.62,-1
268,329.45,-74.11,1190.00,0,209.44,-1
269,329.52,-73.63,1189.00,0,209.26,-1
270,329.59,-72.93,1187.00,0,208.91,-1
271,329.66,-73.35,1185.00,0,208.56,-1
272,329.74,-75.08,1185.00,0,208.56,-1
273,329.89,-76.59,1186.00,0,208.74,-1
274,329.97,-77.34,1186.00,0,208.74,-1
275,330.04,-77.54,1187.00,0,208.91,-1
276,330.12,-78.18,1188.00,0,209.09,-1
277,330.20,-79.56,1188.00,0,209.09,-1
278,330.28,-81.01,1189.00,0,209.26,-1
279,330.36,-81.58,1188.00,0,209.09,-1
280,330.45,-81.26,1188.00,0,209.09,-1
281,330.53,-81.70,1187.00,0,208.91,-1
282,330.61,-83.41,1188.00,0,209.09,-1
283,330.70,-85.32,1189.00,0,209.26,-1
284,330.78,-86.98,1190.00,0,209.44,-1
285,330.87,-87.56,1191.00,0,209.62,-1
286,330.96,-88.34,1193.00,0,209.97,-1
287,331.05,-89.36,1194.00,0,210.14,-1
288,331.14,-90.68,1194.00,0,210.14,-1
289,331.23,-90.80,1193.00,0,209.97,-1
290,331.32,-90.23,1193.00,0,209.97,-1
291,331.50,-91.41,1193.00,0,209.97,-1
292,331.50,-92.41,1193.00,0,209.97,-1
293,331.59,-92.56,1193.00,0,209.97,-1
294,331.78,-91.92,1193.00,0,209.97,-1
295,331.87,-92.10,1193.00,0,209.97,-1
296,331.96,-92.72,1192.00,0,209.79,-1
297,332.06,-92.72,1191.00,0,209.62,-1
298,332.15,-91.69,1189.00,0,209.26,-1
299,332.24,-91.46,1187.00,0,208.91,-1
300,332.33,-92.34,1186.00,0,208.74,-1
301,332.43,-93.01,1185.00,0,208.56,-1
302,332.52,-93.24,1185.00,0,208.56,-1
303,332.61,-93.09,1184.00,0,208.38,-1
304,332.71,-93.44,1184.00,0,208.38,-1
305,332.80,-94.41,1183.00,0,208.21,-1
306,332.89,-95.33,1182.00,0,208.03,-1
307,332.99,-95.21,1180.00,0,207.68,-1
308,333.09,-95.61,1179.00,0,207.50,-1
309,333.18,-97.03,1178.00,0,207.33,-1
310,333.28,-98.64,1179.00,0,207.50,-1
311,333.38,-99.12,1179.00,0,207.50,-1
312,333.48,-98.95,1180.00,0,207.68,-1
313,333.58,-99.51,1180.00,0,207.68,-1
314,333.68,-100.60,1179.00,0,207.50,-1
315,333.78,-100.86,1177.00,0,207.15,-1
316,333.88,-100.47,1176.00,0,206.98,-1
317,333.98,-100.67,1175.00,0,206.80,-1
318,334.08,-101.80,1175.00,0,206.80,-1
319,334.19,-102.20,1174.00,0,206.62,-1
320,334.29,-101.54,1174.00,0,206.62,-1
321,334.39,-100.84,1173.00,0,206.45,-1
322,334.49,-101.07,1172.00,0,206.27,-1
323,334.59,-100.31,1167.00,0,205.39,-1
324,334.69,-100.31,1164.00,0,204.86,-1
325,334.89,-100.55,1163.00,0,204.69,-1
326,334.99,-101.54,1161.00,0,204.34,-1
327,335.09,-101.65,1160.00,0,204.16,-1
328,335.19,-101.18,1159.00,0,203.98,-1
329,335.30,-101.54,1158.00,0,203.81,-1
330,335.40,-102.39,1156.00,0,203.46,-1
331,335.50,-102.38,1154.00,0,203.10,-1
332,335.60,-102.51,1152.00,0,202.75,-1
333,335.71,-103.77,1150.00,0,202.40,-1
334,335.81,-105.80,1150.00,0,202.40,-1
335,335.92,-106.72,1150.00,0,202.40,-1
336,336.03,-106.75,1150.00,0,202.40,-1
337,336.13,-107.16,1149.00,0,202.22,-1
338,336.24,-108.00,1148.00,0,202.05,-1
339,336.35,-107.97,1146.00,0,201.70,-1
340,336.46,-107.65,1144.00,0,201.34,-1
341,336.57,-108.45,1143.00,0,200.99,-1
342,336.79,-110.05,1142.00,0,200.99,-1
343,336.90,-109.56,1142.00,0,200.99,-1
344,337.00,-109.12,1140.00,0,200.64,-1
345,337.11,-109.64,1139.00,0,200.46,-1
346,337.22,-108.81,1136.00,0,199.94,-1
347,337.33,-108.07,1133.00,0,199.41,-1
348,337.44,-108.98,1131.00,0,199.06,-1
349,337.55,-110.32,1130.00,0,198.88,-1
350,337.66,-110.66,1129.00,0,198.70,-1
351,337.77,-110.66,1128.00,0,198.53,-1
352,338.00,-112.30,1126.00,0,198.18,-1
353,338.11,-112.42,1124.00,0,197.82,-1
354,338.22,-112.77,1122.00,0,197.47,-1
355,338.34,-114.67,1122.00,0,197.47,-1
356,338.45,-116.16,1122.00,0,197.47,-1
357,338.57,-117.02,1122.00,0,197.47,-1
358,338.69,-117.63,1123.00,0,197.65,-1
359,338.80,-118.79,1122.00,0,197.47,-1
360,338.92,-118.82,1121.00,0,197.30,-1
361,339.04,-118.84,1118.00,0,196.77,-1
362,339.16,-119.74,1118.00,0,196.77,-1
363,339.28,-120.78,1118.00,0,196.77,-1
364,339.40,-120.70,1118.00,0,196.77,-1
365,339.65,-121.45,1117.00,0,196.59,-1
366,339.77,-121.35,1115.00,0,196.24,-1
367,339.89,-120.77,1112.00,0,195.71,-1
368,340.01,-121.53,1111.00,0,195.54,-1
369,340.13,-122.70,1110.00,0,195.36,-1
370,340.26,-122.95,1110.00,0,195.36,-1
371,340.38,-123.72,1109.00,0,195.18,-1
372,340.50,-125.14,1109.00,0,195.18,-1
373,340.63,-125.87,1107.00,0,194.83,-1
374,340.76,-126.39,1105.00,0,194.48,-1
375,341.01,-129.59,1105.00,0,194.48,-1
376,341.14,-129.96,1106.00,0,194.66,-1
377,341.28,-131.30,1106.00,0,194.66,-1
378,341.41,-132.73,1105.00,0,194.48,-1
379,341.54,-132.64,1104.00,0,194.30,-1
380,341.67,-133.89,1103.00,0,194.13,-1
381,341.81,-135.25,1103.00,0,194.13,-1
382,341.95,-135.51,1104.00,0,194.30,-1
383,342.08,-135.66,1105.00,0,194.48,-1
384,342.22,-136.33,1104.00,0,194.13,-1
385,342.35,-136.91,1103.00,0,193.78,-1
386,342.63,-138.82,1101.00,0,193.78,-1
387,342.63,-138.82,1102.00,0,193.95,-1
388,342.91,-139.78,1102.00,0,193.95,-1
389,343.05,-141.14,1102.00,0,193.95,-1
390,343.19,-141.98,1102.00,0,193.95,-1
391,343.19,-142.71,1101.00,0,193.78,-1
392,343.48,-145.09,1102.00,0,193.95,-1
393,343.63,-146.33,1103.00,0,194.13,-1
394,343.77,-146.91,1104.00,0,194.30,-1
395,343.92,-148.07,1103.00,0,194.13,-1
396,344.07,-148.61,1103.00,0,194.13,-1
397,344.22,-149.44,1103.00,0,194.13,-1
398,344.37,-151.26,1104.00,0,194.30,-1
399,344.52,-151.63,1105.00,0,194.48,-1
400,344.67,-151.69,1106.00,0,194.66,-1
401,344.83,-152.29,1105.00,0,194.48,-1
402,344.98,-152.09,1104.00,0,194.30,-1
403,345.13,-154.76,1104.00,0,194.30,-1
404,345.44,-155.39,1105.00,0,194.48,-1
405,345.60,-156.26,1105.00,0,194.48,-1
406,345.76,-157.08,1104.00,0,194.30,-1
407,345.91,-158.07,1103.00,0,194.13,-1
408,346.07,-160.28,1104.00,0,194.30,-1
409,346.24,-161.65,1106.00,0,194.66,-1
410,346.40,-162.90,1107.00,0,194.83,-1
411,346.56,-163.99,1107.00,0,194.66,-1
412,346.73,-164.05,1106.00,0,194.66,-1
413,346.89,-166.66,1109.00,0,195.18,-1
414,347.06,-167.18,1109.00,0,195.18,-1
415,347.39,-167.94,1109.00,0,195.18,-1
416,347.56,-167.82,1108.00,0,195.01,-1
417,347.73,-168.71,1109.00,0,195.18,-1
418,347.90,-169.83,1111.00,0,195.54,-1
419,348.07,-170.61,1111.00,0,195.54,-1
420,348.24,-172.24,1111.00,0,195.54,-1
421,348.42,-172.60,1110.00,0,195.36,-1
422,348.59,-174.48,1112.00,0,195.71,-1
423,348.77,-175.72,1114.00,0,196.06,-1
424,348.94,-176.89,1116.00,0,196.42,-1
425,349.12,-178.25,1115.00,0,196.24,-1
426,349.30,-178.89,1115.00,0,196.24,-1
427,349.48,-180.14,1117.00,0,196.59,-1
428,349.66,-180.34,1119.00,0,196.94,-1
429,349.84,-180.85,1120.00,0,197.12,-1
430,350.02,-181.36,1119.00,0,196.94,-1
431,350.20,-181.89,1119.00,0,196.94,-1
432,350.39,-183.13,1122.00,0,197.47,-1
433,350.75,-184.41,1122.00,0,197.47,-1
434,350.94,-184.97,1120.00,0,197.12,-1
435,351.13,-186.88,1121.00,0,197.30,-1
436,351.31,-187.99,1123.00,0,197.65,-1
437,351.50,-188.87,1124.00,0,197.82,-1
438,351.69,-189.65,1124.00,0,197.82,-1
439,351.88,-190.30,1123.00,0,197.65,-1
440,352.08,-191.85,1125.00,0,198.00,-1
441,352.27,-191.59,1126.00,0,198.18,-1
442,352.46,-192.03,1126.00,0,198.18,-1
443,352.65,-192.01,1126.00,0,198.18,-1
444,352.84,-193.00,1126.00,0,198.18,-1
445,353.04,-193.68,1128.00,0,198.53,-1
446,353.23,-194.19,1128.00,0,198.53,-1
447,353.43,-195.01,1128.00,0,198.53,-1
448,353.62,-196.00,1130.00,0,198.88,-1
449,353.82,-198.08,1131.00,0,199.06,-1
450,354.02,-198.93,1131.00,0,199.06,-1
451,354.42,-198.94,1130.00,0,198.88,-1
452,354.42,-200.17,1131.00,0,199.06,-1
453,354.82,-200.21,1133.00,0,199.41,-1
454,355.02,-200.44,1133.00,0,199.41,-1
455,355.22,-199.81,1132.00,0,199.23,-1
456,355.42,-200.40,1132.00,0,199.23,-1
457,355.62,-200.74,1134.00,0,199.58,-1
458,355.82,-201.46,1134.00,0,199.58,-1
459,356.02,-201.51,1132.00,0,199.23,-1
460,356.22,-202.10,1131.00,0,199.06,-1
461,356.43,-203.27,1132.00,0,199.23,-1
462,356.63,-203.68,1132.00,0,199.23,-1
463,356.83,-204.22,1131.00,0,199.06,-1
464,357.04,-204.10,1130.00,0,198.88,-1
465,357.24,-204.40,1131.00,0,199.06,-1
466,357.45,-204.34,1130.00,0,198.88,-1
467,357.65,-204.34,1130.00,0,198.70,-1
468,357.86,-203.92,1129.00,0,198.70,-1
469,358.26,-203.96,1129.00,0,198.70,-1
470,358.47,-204.61,1127.00,0,198.35,-1
471,358.67,-204.80,1126.00,0,198.18,-1
472,358.88,-205.93,1126.00,0,198.18,-1
473,359.08,-205.66,1127.00,0,198.35,-1
474,359.29,-206.29,1126.00,0,198.18,-1
475,359.50,-206.25,1124.00,0,197.82,-1
476,359.70,-206.88,1125.00,0,198.00,-1
477,359.91,-206.10,1124.00,0,197.82,-1
478,360.12,-205.87,1123.00,0,197.65,-1
479,360.32,-205.33,1121.00,0,197.30,-1
480,360.53,-205.67,1121.00,0,197.30,-1
481,360.73,-205.29,1121.00,0,197.30,-1
482,360.94,-205.28,1119.00,0,196.94,-1
483,361.14,-205.32,1117.00,0,196.59,-1
484,361.35,-206.15,1116.00,0,196.42,-1
485,361.76,-206.88,1114.00,0,196.06,-1
486,361.97,-206.82,1112.00,0,195.71,-1
487,362.18,-206.79,1111.00,0,195.54,-1
488,362.38,-207.20,1112.00,0,195.71,-1
489,362.59,-206.69,1111.00,0,195.54,-1
490,362.80,-206.06,1108.00,0,195.01,-1
491,363.00,-205.45,1106.00,0,194.66,-1
492,363.21,-206.12,1106.00,0,194.66,-1
493,363.41,-205.93,1105.00,0,194.48,-1
494,363.62,-205.85,1101.00,0,193.78,-1
495,364.03,-207.10,1102.00,0,193.95,-1
496,364.24,-207.07,1101.00,0,193.78,-1
497,364.45,-207.01,1098.00,0,193.25,-1
498,364.65,-206.61,1096.00,0,192.90,-1
499,364.86,-206.93,1096.00,0,192.90,-1
500,365.07,-206.19,1096.00,0,192.90,-1
501,365.27,-205.78,1094.00,0,192.54,-1
502,365.48,-205.08,1091.00,0,192.02,-1
503,365.68,-204.61,1090.00,0,191.84,-1
504,365.89,-204.72,1086.00,0,191.14,-1
505,366.30,-204.54,1083.00,0,190.61,-1
506,366.50,-205.22,1083.00,0,190.61,-1
507,366.71,-205.20,1082.00,0,190.43,-1
508,366.91,-205.22,1080.00,0,190.08,-1
509,367.12,-204.92,1077.00,0,189.55,-1
510,367.32,-205.36,1076.00,0,189.38,-1
511,367.53,-204.60,1075.00,0,189.20,-1
512,367.73,-204.11,1073.00,0,188.14,-1
513,367.93,-203.39,1069.00,0,188.14,-1
514,368.14,-202.86,1066.00,0,187.62,-1
515,368.34,-202.47,1065.00,0,187.44,-1
516,368.74,-202.30,1062.00,0,186.91,-1
517,368.95,-202.41,1059.00,0,186.38,-1
518,369.15,-202.86,1058.00,0,186.21,-1
519,369.35,-202.54,1056.00,0,185.86,-1
520,369.55,-202.31,1053.00,0,185.33,-1
521,369.76,-201.84,1050.00,0,184.80,-1
