cnt,pos,speed,DTorque,Force,Dir
3752,49.63,-27.92,132.00,0,23.23,0
3753,49.65,-25.28,138.00,0,24.29,0
3754,49.68,-22.63,143.00,0,25.17,0
3755,49.70,-19.83,148.00,0,26.05,0
3756,49.71,-17.36,152.00,0,26.75,0
3757,49.73,-14.20,155.00,0,27.28,0
3758,49.74,-11.54,158.00,0,27.81,0
3759,49.75,-8.46,159.00,0,27.98,0
3760,49.75,-5.78,161.00,0,28.34,0
3761,49.76,-2.83,163.00,0,28.69,0
3762,49.76,0.06,164.00,0,28.86,0
3763,49.75,2.75,165.00,0,29.04,0
3764,49.75,5.13,166.00,0,29.22,0
3765,49.74,7.12,167.00,0,29.39,0
3766,49.73,9.19,167.00,0,29.39,0
3767,49.72,11.23,168.00,0,29.57,0
3768,49.71,13.03,168.00,0,29.57,0
3769,49.69,15.06,169.00,0,29.74,0
3770,49.68,16.92,169.00,0,29.74,0
3771,49.66,18.67,169.00,0,29.74,0
3772,49.64,20.51,170.00,0,29.92,0
3773,49.61,22.40,170.00,0,29.92,0
3774,49.59,24.25,170.00,0,29.92,0
3775,49.56,26.02,170.00,0,29.92,0
3776,49.54,27.95,170.00,0,29.92,0
3777,49.51,29.74,171.00,0,30.10,0
3778,49.48,31.48,171.00,0,30.10,0
3779,49.44,33.07,171.00,0,30.10,0
3780,49.41,34.74,171.00,0,30.10,0
3781,49.37,36.30,172.00,0,30.27,0
3782,49.33,37.81,171.00,0,30.10,0
3783,49.25,40.75,171.00,0,30.10,0
3784,49.21,42.16,170.00,0,29.92,0
3785,49.17,43.70,170.00,0,29.92,0
3786,49.12,45.20,170.00,0,29.92,0
3787,49.08,46.59,170.00,0,29.92,0
3788,48.98,49.21,171.00,0,30.10,0
3789,48.93,50.43,170.00,0,29.92,0
3790,48.88,52.78,170.00,0,29.92,0
3791,48.82,53.94,131.00,0,23.06,0
3792,48.77,53.94,131.00,0,7.92,0
3793,48.71,52.53,-3.00,0,-0.53,0
3794,48.61,49.75,-2.00,0,-0.35,0
3795,48.61,49.75,-2.00,0,-0.35,0
3796,48.57,44.37,-1.00,0,-0.18,0
3797,48.48,41.69,1.00,0,0.18,0
3798,48.44,39.01,2.00,0,0.35,0
3799,48.40,36.50,2.00,0,0.35,0
3800,48.37,33.69,2.00,0,0.35,0
3801,48.34,31.13,2.00,0,0.35,0
3802,48.31,28.52,3.00,0,0.53,0
3803,48.28,25.91,2.00,0,0.53,0
3804,48.26,23.29,3.00,0,0.53,0
3805,48.24,18.20,2.00,0,0.35,0
3806,48.22,15.62,2.00,0,0.35,0
3807,48.19,13.03,2.00,0,0.35,0
3808,48.18,10.76,2.00,0,0.35,0
3809,48.17,8.29,2.00,0,0.35,0
3810,48.17,5.74,2.00,0,0.35,0
3811,48.17,3.50,2.00,0,0.35,0
3812,48.16,1.22,2.00,0,0.35,0
3813,48.17,-1.07,2.00,0,0.35,0
3814,48.17,-2.96,2.00,0,0.35,0
3815,48.17,-4.35,2.00,0,0.35,0
3816,48.18,-5.71,2.00,0,0.35,0
3817,48.19,-7.10,2.00,0,0.35,0
3818,48.19,-8.29,2.00,0,0.35,0
3819,48.20,-9.26,2.00,0,0.35,0
3820,48.21,-10.58,2.00,0,0.35,0
3821,48.23,-11.59,1.00,0,0.18,0
3822,48.24,-12.69,1.00,0,0.18,0
3823,48.25,-13.63,1.00,0,0.18,0
3824,48.27,-14.98,1.00,0,0.18,0
3825,48.28,-15.67,1.00,0,0.18,0
3826,48.30,-16.73,1.00,0,0.18,0
3827,48.32,-17.89,1.00,0,0.18,0
3828,48.34,-18.62,1.00,0,0.18,0
3829,48.36,-19.61,1.00,0,0.18,0
3830,48.38,-20.50,1.00,0,0.18,0
3831,48.40,-21.49,1.00,0,0.18,0
3832,48.42,-22.40,1.00,0,0.18,0
3833,48.44,-23.29,1.00,0,0.18,0
3834,48.47,-24.09,1.00,0,0.18,0
3835,48.49,-24.88,1.00,0,0.18,0
3836,48.52,-25.72,0.00,0,0.00,0
3837,48.54,-26.41,0.00,0,0.00,0
3838,48.57,-27.24,1.00,0,0.18,0
3839,48.60,-27.99,1.00,0,0.18,0
3840,48.63,-28.91,1.00,0,0.18,0
3841,48.66,-29.59,1.00,0,0.18,0
3842,48.69,-30.43,1.00,0,0.18,0
3843,48.72,-31.16,1.00,0,0.18,0
3844,48.75,-31.93,0.00,0,0.00,0
3845,48.78,-32.86,0.00,0,0.00,0
3846,48.85,-34.30,0.00,0,0.00,0
3847,48.89,-35.29,0.00,0,0.00,0
3848,48.92,-35.84,0.00,0,0.00,0
3849,48.96,-36.67,0.00,0,0.00,0
3850,49.00,-37.36,0.00,0,0.00,0
3851,49.04,-38.14,0.00,0,0.00,0
3852,49.07,-38.71,0.00,0,0.00,0
3853,49.11,-39.59,0.00,0,0.00,0
3854,49.15,-40.13,0.00,0,0.00,0
3855,49.19,-40.88,0.00,0,0.00,0
3856,49.24,-41.68,2.00,0,0.35,0
3857,49.28,-42.30,17.00,0,2.99,0
3858,49.32,-43.02,17.00,0,2.99,0
3859,49.37,-43.44,42.00,0,7.39,0
3860,49.41,-42.78,67.00,0,11.79,0
3861,49.45,-41.85,87.00,0,15.31,0
3862,49.49,-40.62,103.00,0,18.13,0
3863,49.53,-38.61,115.00,0,20.24,0
3864,49.57,-36.61,124.00,0,21.82,0
3865,49.60,-34.05,132.00,0,23.23,0
3866,49.63,-31.86,138.00,0,24.29,0
3867,49.66,-29.29,148.00,0,26.05,0
3868,49.69,-26.60,148.00,0,26.05,0
3869,49.71,-23.97,151.00,0,26.58,0
3870,49.73,-21.16,155.00,0,27.28,0
3871,49.75,-18.45,157.00,0,27.63,0
3872,49.77,-15.74,159.00,0,27.98,0
3873,49.78,-12.90,161.00,0,28.34,0
3874,49.79,-10.16,163.00,0,28.69,0
3875,49.80,-7.13,164.00,0,28.86,0
3876,49.80,-4.54,165.00,0,29.04,0
3877,49.80,1.08,167.00,0,29.39,0
3878,49.80,1.08,167.00,0,29.39,0
3879,49.80,3.62,167.00,0,29.39,0
3880,49.79,5.60,168.00,0,29.57,0
3881,49.79,7.55,168.00,0,29.57,0
3882,49.78,9.59,169.00,0,29.74,0
3883,49.76,11.21,169.00,0,29.74,0
3884,49.75,13.28,169.00,0,29.74,0
3885,49.74,14.83,169.00,0,29.74,0
3886,49.72,16.72,170.00,0,29.92,0
3887,49.68,20.02,169.00,0,29.74,0
3888,49.68,21.69,170.00,0,29.92,0
3889,49.66,21.69,170.00,0,29.92,0
3890,49.61,25.02,170.00,0,29.92,0
3891,49.58,26.82,170.00,0,29.92,0
3892,49.56,28.44,170.00,0,29.92,0
3893,49.53,30.20,170.00,0,29.92,0
3894,49.49,31.76,171.00,0,30.10,0
3895,49.46,33.37,172.00,0,30.27,0
3896,49.39,36.41,172.00,0,30.27,0
3897,49.35,38.05,172.00,0,30.27,0
3898,49.31,39.27,171.00,0,30.10,0
3899,49.27,40.87,171.00,0,30.10,0
3900,49.23,42.20,170.00,0,29.92,0
3901,49.19,43.56,170.00,0,29.92,0
3902,49.14,44.89,170.00,0,29.92,0
3903,49.09,47.78,170.00,0,29.92,0
3904,49.00,49.04,171.00,0,30.10,0
3905,48.95,50.23,171.00,0,30.10,0
3906,48.90,51.41,171.00,0,30.10,0
3907,48.84,52.43,170.00,0,29.92,0
3908,48.79,53.69,170.00,0,29.92,0
3909,48.73,55.05,170.00,0,29.92,0
3910,48.68,56.28,132.00,0,23.23,0
3911,48.62,57.05,45.00,0,-0.53,0
3912,48.51,51.97,-2.00,0,-0.35,0
3913,48.46,49.30,-1.00,0,-0.18,0
3914,48.42,46.55,0.00,0,0.00,0
3915,48.37,43.96,1.00,0,0.18,0
3916,48.33,41.13,1.00,0,0.18,0
3917,48.29,38.40,2.00,0,0.35,0
3918,48.26,35.76,3.00,0,0.53,0
3919,48.23,33.08,3.00,0,0.53,0
3920,48.20,30.34,3.00,0,0.53,0
3921,48.17,27.68,3.00,0,0.53,0
3922,48.14,25.21,2.00,0,0.35,0
3923,48.12,20.26,2.00,0,0.35,0
3924,48.08,17.56,2.00,0,0.35,0
3925,48.07,15.02,2.00,0,0.35,0
3926,48.05,12.86,2.00,0,0.35,0
3927,48.04,10.05,2.00,0,0.35,0
3928,48.04,7.91,2.00,0,0.35,0
3929,48.03,5.42,2.00,0,0.35,0
3930,48.03,0.72,2.00,0,0.35,0
3931,48.03,-1.46,2.00,0,0.35,0
3932,48.03,-3.34,2.00,0,0.35,0
3933,48.04,-4.78,2.00,0,0.35,0
3934,48.04,-6.18,2.00,0,0.35,0
3935,48.05,-7.18,2.00,0,0.35,0
3936,48.06,-8.52,2.00,0,0.35,0
3937,48.07,-9.72,2.00,0,0.35,0
3938,48.08,-10.55,1.00,0,0.18,0
3939,48.09,-11.85,1.00,0,0.18,0
3940,48.10,-12.58,1.00,0,0.18,0
3941,48.12,-13.87,1.00,0,0.18,0
3942,48.13,-14.56,1.00,0,0.18,0
3943,48.15,-15.58,1.00,0,0.18,0
3944,48.16,-16.46,1.00,0,0.18,0
3945,48.18,-17.30,1.00,0,0.18,0
3946,48.20,-18.12,1.00,0,0.18,0
3947,48.22,-19.08,1.00,0,0.18,0
3948,48.24,-19.68,1.00,0,0.18,0
3949,48.26,-20.61,1.00,0,0.18,0
3950,48.28,-21.38,1.00,0,0.18,0
3951,48.30,-22.09,1.00,0,0.18,0
3952,48.33,-23.03,1.00,0,0.18,0
3953,48.35,-23.73,1.00,0,0.18,0
3954,48.37,-24.51,1.00,0,0.18,0
3955,48.40,-25.22,1.00,0,0.18,0
3956,48.42,-25.96,1.00,0,0.18,0
3957,48.45,-26.64,1.00,0,0.18,0
3958,48.48,-27.42,0.00,0,0.00,0
3959,48.51,-28.13,0.00,0,0.00,0
3960,48.54,-28.69,0.00,0,0.00,0
3961,48.56,-29.43,0.00,0,0.00,0
3962,48.59,-29.91,0.00,0,0.00,0
3963,48.63,-30.59,0.00,0,0.00,0
3964,48.66,-31.29,1.00,0,0.18,0
3965,48.69,-31.93,0.00,0,0.00,0
3966,48.72,-32.49,0.00,0,0.00,0
3967,48.75,-33.13,0.00,0,0.00,0
3968,48.79,-33.92,0.00,0,0.00,0
3969,48.82,-34.42,0.00,0,0.00,0
3970,48.86,-35.10,0.00,0,0.00,0
3971,48.89,-35.73,0.00,0,0.00,0
3972,48.93,-36.30,0.00,0,0.00,0
3973,48.97,-36.93,0.00,0,0.00,0
3974,49.00,-37.31,0.00,0,0.00,0
3975,49.04,-38.04,0.00,0,0.00,0
3976,49.08,-38.47,0.00,0,0.00,0
3977,49.12,-39.08,0.00,0,0.00,0
3978,49.16,-39.61,0.00,0,0.35,0
3979,49.20,-40.12,2.00,0,2.99,0
3980,49.24,-40.93,42.00,0,7.39,0
3981,49.28,-40.80,67.00,0,11.79,0
3982,49.32,-40.40,67.00,0,11.79,0
3983,49.36,-39.34,87.00,0,15.31,0
3984,49.40,-37.69,103.00,0,18.13,0
3985,49.43,-36.01,114.00,0,20.06,0
3986,49.47,-33.72,124.00,0,21.82,0
3987,49.50,-31.18,133.00,0,23.41,0
3988,49.53,-25.88,144.00,0,25.34,0
3989,49.55,-22.99,148.00,0,26.05,0
3990,49.58,-20.04,152.00,0,26.75,0
3991,49.60,-20.04,152.00,0,27.28,0
3992,49.61,-17.37,155.00,0,27.28,0
3993,49.63,-13.97,157.00,0,27.63,0
3994,49.64,-11.24,160.00,0,28.16,0
3995,49.65,-7.96,161.00,0,28.34,0
3996,49.65,-5.27,163.00,0,28.69,0
3997,49.65,-2.19,164.00,0,28.86,0
3998,49.65,0.74,166.00,0,29.22,0
3999,49.65,3.44,167.00,0,29.39,0
4000,49.64,7.73,167.00,0,29.39,0
4001,49.64,7.73,167.00,0,29.39,0
4002,49.63,10.02,168.00,0,29.57,0
4003,49.62,11.86,168.00,0,29.57,0
4004,49.60,14.11,169.00,0,29.74,0
4005,49.59,15.88,169.00,0,29.74,0
4006,49.57,18.05,169.00,0,29.74,0
4007,49.55,19.98,169.00,0,29.74,0
4008,49.53,21.71,169.00,0,29.74,0
4009,49.50,23.62,170.00,0,30.10,0
4010,49.48,27.33,171.00,0,30.10,0
4011,49.42,28.87,171.00,0,30.10,0
4012,49.39,30.48,171.00,0,30.10,0
4013,49.36,32.18,171.00,0,30.10,0
4014,49.32,33.68,171.00,0,30.10,0
4015,49.29,35.00,171.00,0,30.10,0
4016,49.21,37.96,170.00,0,29.92,0
4017,49.13,40.99,170.00,0,29.92,0
4018,49.09,42.47,170.00,0,29.92,0
4019,49.05,44.13,170.00,0,29.92,0
4020,49.00,45.39,171.00,0,30.10,0
4021,48.95,46.54,171.00,0,30.10,0
4022,48.91,47.81,171.00,0,30.10,0
4023,48.91,49.03,170.00,0,29.92,0
4024,48.86,49.03,170.00,0,29.92,0
4025,48.76,51.59,131.00,0,23.06,0
4026,48.70,52.44,45.00,0,7.92,0
4027,48.65,50.18,-3.00,0,-0.53,0
4028,48.61,47.44,-2.00,0,-0.35,0
4029,48.56,44.78,-2.00,0,-0.35,0
4030,48.52,42.13,-1.00,0,-0.18,0
4031,48.48,39.65,-1.00,0,-0.18,0
4032,48.44,36.90,0.00,0,0.00,0
4033,48.41,34.50,2.00,0,0.35,0
4034,48.38,31.89,2.00,0,0.35,0
4035,48.35,29.19,2.00,0,0.35,0
4036,48.32,26.66,3.00,0,0.53,0
4037,48.30,24.20,3.00,0,0.53,0
4038,48.27,19.09,2.00,0,0.35,0
4039,48.24,16.65,2.00,0,0.35,0
4040,48.22,14.23,2.00,0,0.35,0
4041,48.21,11.73,2.00,0,0.35,0
4042,48.20,9.42,2.00,0,0.35,0
4043,48.20,6.94,2.00,0,0.35,0
4044,48.19,4.56,2.00,0,0.35,0
4045,48.19,0.13,2.00,0,0.35,0
4046,48.19,-1.96,2.00,0,0.35,0
4047,48.19,-3.55,2.00,0,0.35,0
4048,48.19,-3.55,2.00,0,0.35,0
4049,48.20,-4.89,2.00,0,0.35,0
4050,48.21,-6.24,2.00,0,0.35,0
4051,48.21,-7.39,2.00,0,0.35,0
4052,48.22,-8.54,2.00,0,0.35,0
4053,48.23,-9.62,2.00,0,0.35,0
4054,48.25,-11.60,2.00,0,0.35,0
4055,48.27,-12.98,2.00,0,0.35,0
4056,48.28,-13.69,2.00,0,0.18,0
4057,48.30,-14.77,1.00,0,0.18,0
4058,48.31,-15.76,1.00,0,0.18,0
4059,48.33,-16.69,1.00,0,0.18,0
4060,48.35,-17.61,1.00,0,0.18,0
4061,48.36,-18.58,1.00,0,0.18,0
4062,48.38,-19.29,1.00,0,0.18,0
4063,48.40,-20.17,1.00,0,0.18,0
4064,48.42,-21.10,1.00,0,0.18,0
4065,48.45,-21.98,1.00,0,0.18,0
4066,48.47,-22.76,1.00,0,0.18,0
4067,48.49,-23.53,1.00,0,0.18,0
4068,48.52,-24.29,1.00,0,0.18,0
4069,48.54,-24.95,1.00,0,0.18,0
4070,48.57,-25.68,1.00,0,0.18,0
4071,48.59,-26.36,1.00,0,0.18,0
4072,48.62,-27.17,1.00,0,0.18,0
4073,48.65,-27.78,1.00,0,0.18,0
4074,48.68,-28.65,1.00,0,0.18,0
4075,48.71,-29.37,1.00,0,0.18,0
4076,48.74,-30.16,0.00,0,0.00,0
4077,48.77,-30.84,0.00,0,0.00,0
4078,48.80,-31.44,0.00,0,0.00,0
4079,48.83,-32.43,0.00,0,0.00,0
4080,48.87,-33.20,0.00,0,0.00,0
4081,48.90,-33.61,0.00,0,0.00,0
4082,48.93,-34.53,0.00,0,0.00,0
4083,48.97,-35.15,0.00,0,0.00,0
4084,49.00,-35.79,0.00,0,0.00,0
4085,49.04,-36.49,0.00,0,0.00,0
4086,49.08,-37.00,0.00,0,0.00,0
4087,49.12,-37.82,0.00,0,0.00,0
4088,49.15,-38.21,2.00,0,0.35,0
4089,49.19,-38.96,17.00,0,2.99,0
4090,49.23,-39.23,43.00,0,7.57,0
4091,49.27,-38.85,67.00,0,11.79,0
4092,49.31,-37.85,87.00,0,15.31,0
4093,49.35,-36.42,103.00,0,18.13,0
4094,49.38,-34.67,115.00,0,20.24,0
4095,49.41,-32.73,124.00,0,21.82,0
4096,49.44,-30.22,132.00,0,23.23,0
4097,49.47,-27.91,139.00,0,24.46,0
4098,49.50,-25.19,144.00,0,25.34,0
4099,49.52,-22.51,149.00,0,26.22,0
4100,49.54,-19.69,152.00,0,26.75,0
4101,49.55,-16.53,155.00,0,27.28,0
4102,49.57,-13.72,158.00,0,27.81,0
4103,49.58,-10.67,160.00,0,28.16,0
4104,49.59,-7.72,162.00,0,28.51,0
4105,49.59,-4.59,163.00,0,28.69,0
4106,49.59,-1.62,164.00,0,28.86,0
4107,49.59,1.31,165.00,0,29.04,0
4108,49.59,3.85,166.00,0,29.22,0
4109,49.58,6.29,167.00,0,29.39,0
4110,49.57,8.49,167.00,0,29.39,0
4111,49.56,10.32,167.00,0,29.39,0
4112,49.55,12.67,168.00,0,29.57,0
4113,49.54,14.41,169.00,0,29.74,0
4114,49.52,16.59,169.00,0,29.74,0
4115,49.50,18.50,170.00,0,29.92,0
4116,49.48,20.37,170.00,0,29.92,0
4117,49.46,22.23,170.00,0,29.92,0
4118,49.43,24.01,170.00,0,29.92,0
4119,49.41,25.73,170.00,0,29.92,0
4120,49.38,27.38,171.00,0,30.10,0
4121,49.35,29.02,171.00,0,30.10,0
4122,49.32,30.57,171.00,0,30.10,0
4123,49.29,32.05,170.00,0,29.92,0
4124,49.22,35.25,170.00,0,29.92,0
4125,49.18,36.83,170.00,0,29.92,0
4126,49.14,38.44,170.00,0,29.92,0
4127,49.10,39.97,170.00,0,29.92,0
4128,49.06,41.44,170.00,0,29.92,0
4129,49.02,43.13,170.00,0,29.92,0
4130,48.98,44.51,171.00,0,30.10,0
4131,48.93,45.66,171.00,0,30.10,0
4132,48.88,47.09,170.00,0,29.92,0
4133,48.83,48.45,43.00,0,7.57,0
4134,48.79,49.31,-2.00,0,-0.35,0
4135,48.69,44.69,-2.00,0,-0.35,0
4136,48.65,42.21,-2.00,0,-0.35,0
4137,48.61,39.56,-1.00,0,-0.18,0
4138,48.57,37.29,-1.00,0,-0.18,0
4139,48.54,34.67,0.00,0,0.00,0
4140,48.51,32.51,0.00,0,0.00,0
4141,48.48,30.14,1.00,0,0.18,0
4142,48.45,27.78,2.00,0,0.35,0
4143,48.40,23.26,3.00,0,0.53,0
4144,48.38,20.82,2.00,0,0.35,0
4145,48.38,18.62,2.00,0,0.35,0
4146,48.34,16.36,2.00,0,0.35,0
4147,48.33,14.14,2.00,0,0.35,0
4148,48.32,11.91,2.00,0,0.35,0
4149,48.31,9.87,2.00,0,0.35,0
4150,48.30,7.73,2.00,0,0.35,0
4151,48.30,5.45,2.00,0,0.35,0
4152,48.29,1.41,2.00,0,0.35,0
4153,48.29,-0.59,2.00,0,0.35,0
4154,48.29,-0.59,2.00,0,0.35,0
4155,48.29,-2.29,2.00,0,0.35,0
4156,48.30,-3.54,2.00,0,0.35,0
4157,48.30,-4.66,2.00,0,0.35,0
4158,48.31,-5.77,2.00,0,0.35,0
4159,48.31,-6.64,2.00,0,0.35,0
4160,48.32,-7.43,2.00,0,0.35,0
4161,48.33,-8.25,2.00,0,0.35,0
4162,48.34,-9.14,2.00,0,0.35,0
4163,48.35,-9.73,2.00,0,0.35,0
4164,48.36,-10.56,1.00,0,0.18,0
4165,48.37,-11.23,1.00,0,0.18,0
4166,48.38,-11.88,1.00,0,0.18,0
4167,48.40,-12.52,1.00,0,0.18,0
4168,48.41,-13.14,1.00,0,0.18,0
4169,48.42,-13.73,1.00,0,0.18,0
4170,48.44,-14.26,1.00,0,0.18,0
4171,48.45,-14.75,1.00,0,0.18,0
4172,48.47,-15.47,1.00,0,0.18,0
4173,48.48,-15.70,1.00,0,0.18,0
4174,48.50,-16.18,1.00,0,0.18,0
4175,48.52,-16.76,1.00,0,0.18,0
4176,48.53,-16.95,1.00,0,0.18,0
4177,48.55,-17.37,1.00,0,0.18,0
4178,48.57,-17.96,1.00,0,0.18,0
4179,48.59,-18.08,1.00,0,0.18,0
4180,48.60,-18.54,1.00,0,0.18,0
4181,48.62,-18.90,1.00,0,0.18,0
4182,48.64,-19.32,1.00,0,0.18,0
4183,48.66,-19.51,0.00,0,0.00,0
4184,48.68,-19.96,0.00,0,0.00,0
4185,48.70,-20.30,0.00,0,0.00,0
4186,48.72,-20.72,0.00,0,0.00,0
4187,48.74,-21.10,0.00,0,0.00,0
4188,48.77,-21.58,0.00,0,0.00,0
4189,48.79,-21.69,0.00,0,0.00,0
4190,48.81,-22.18,0.00,0,0.00,0
4191,48.83,-22.52,0.00,0,0.00,0
4192,48.85,-22.89,0.00,0,0.00,0
4193,48.88,-23.18,0.00,0,0.00,0
4194,48.90,-23.47,0.00,0,0.00,0
4195,48.93,-23.77,0.00,0,0.00,0
4196,48.95,-24.00,0.00,0,0.00,0
4197,48.97,-24.31,0.00,0,0.00,0
4198,49.00,-24.55,0.00,0,0.00,0
4199,49.02,-24.88,0.00,0,0.00,0
4200,49.05,-25.04,0.00,0,0.00,0
4201,49.07,-25.37,0.00,0,0.00,0
4202,49.10,-25.53,0.00,0,0.00,0
4203,49.12,-25.88,2.00,0,0.35,0
4204,49.15,-26.11,16.00,0,2.82,0
4205,49.18,-26.00,42.00,0,7.39,0
4206,49.20,-25.21,66.00,0,11.62,0
4207,49.23,-23.87,87.00,0,15.31,0
4208,49.25,-22.06,102.00,0,17.95,0
4209,49.27,-20.08,114.00,0,20.06,0
4210,49.29,-17.67,124.00,0,21.82,0
4211,49.30,-15.01,132.00,0,24.46,0
4212,49.32,-9.46,144.00,0,25.34,0
4213,49.33,-6.71,149.00,0,26.22,0
4214,49.33,-6.71,149.00,0,26.93,0
4215,49.33,-3.68,153.00,0,26.93,0
4216,49.33,-0.67,156.00,0,27.46,0
4217,49.33,2.27,158.00,0,27.81,0
4218,49.33,4.83,160.00,0,28.16,0
4219,49.32,7.09,162.00,0,28.51,0
4220,49.31,9.33,163.00,0,28.69,0
4221,49.30,11.61,165.00,0,29.04,0
4222,49.29,13.53,165.00,0,29.04,0
4223,49.27,15.80,166.00,0,29.39,0
4224,49.25,19.90,167.00,0,29.39,0
4225,49.23,19.90,168.00,0,29.57,0
4226,49.19,24.00,168.00,0,29.57,0
4227,49.16,26.05,168.00,0,29.57,0
4228,49.16,26.05,168.00,0,29.57,0
4229,49.10,30.05,169.00,0,29.74,0
4230,49.07,31.83,169.00,0,29.74,0
4231,49.04,33.78,170.00,0,29.92,0
4232,49.00,35.65,170.00,0,29.92,0
4233,48.96,37.08,170.00,0,29.92,0
4234,48.92,39.08,170.00,0,29.92,0
4235,48.88,40.57,170.00,0,22.88,0
4236,48.84,42.20,130.00,0,22.88,0
4237,48.80,43.53,43.00,0,7.57,0
4238,48.76,41.68,-3.00,0,-0.35,0
4239,48.72,39.27,-2.00,0,-0.35,0
4240,48.68,35.05,-1.00,0,-0.18,0
4241,48.61,32.75,-1.00,0,-0.18,0
4242,48.58,30.60,0.00,0,0.00,0
4243,48.55,28.51,1.00,0,0.18,0
4244,48.53,26.34,1.00,0,0.18,0
4245,48.50,24.25,2.00,0,0.35,0
4246,48.48,22.15,3.00,0,0.53,0
4247,48.46,20.12,3.00,0,0.53,0
4248,48.44,17.98,3.00,0,0.53,0
4249,48.43,16.13,2.00,0,0.35,0
4250,48.41,13.88,2.00,0,0.35,0
4251,48.40,9.70,2.00,0,0.35,0
4252,48.39,7.88,2.00,0,0.35,0
4253,48.38,7.88,2.00,0,0.35,0
4254,48.38,3.68,2.00,0,0.35,0
4255,48.37,1.80,3.00,0,0.53,0
4256,48.37,1.80,3.00,0,0.53,0
4257,48.37,-1.82,2.00,0,0.35,0
4258,48.38,-3.09,2.00,0,0.35,0
4259,48.38,-4.32,2.00,0,0.35,0
4260,48.39,-5.26,2.00,0,0.35,0
4261,48.39,-6.20,2.00,0,0.35,0
4262,48.40,-6.90,2.00,0,0.35,0
4263,48.40,-6.90,2.00,0,0.35,0
4264,48.41,-7.86,2.00,0,0.35,0
4265,48.42,-8.69,2.00,0,0.35,0
4266,48.42,-9.30,2.00,0,0.35,0
4267,48.45,-10.84,1.00,0,0.18,0
4268,48.46,-11.54,1.00,0,0.18,0
4269,48.47,-12.26,1.00,0,0.18,0
4270,48.48,-12.79,1.00,0,0.18,0
4271,48.50,-13.43,1.00,0,0.18,0
4272,48.51,-14.05,1.00,0,0.18,0
4273,48.52,-14.58,1.00,0,0.18,0
4274,48.54,-15.29,1.00,0,0.18,0
4275,48.55,-15.66,1.00,0,0.18,0
4276,48.57,-16.31,1.00,0,0.18,0
4277,48.59,-16.90,1.00,0,0.18,0
4278,48.61,-17.30,1.00,0,0.18,0
4279,48.62,-17.91,1.00,0,0.18,0
4280,48.64,-18.52,1.00,0,0.18,0
4281,48.66,-18.83,1.00,0,0.18,0
4282,48.68,-19.47,1.00,0,0.18,0
4283,48.70,-19.96,1.00,0,0.18,0
4284,48.72,-20.65,1.00,0,0.18,0
4285,48.74,-21.22,1.00,0,0.18,0
4286,48.76,-21.67,1.00,0,0.18,0
4287,48.79,-22.20,1.00,0,0.18,0
4288,48.81,-22.83,0.00,0,0.00,0
4289,48.83,-23.39,0.00,0,0.00,0
4290,48.86,-23.95,0.00,0,0.00,0
4291,48.88,-24.49,0.00,0,0.00,0
4292,48.91,-25.00,0.00,0,0.00,0
4293,48.93,-25.49,0.00,0,0.00,0
4294,48.96,-25.97,0.00,0,0.00,0
4295,48.98,-26.45,0.00,0,0.00,0
4296,49.01,-26.93,1.00,0,0.18,0
4297,49.04,-27.45,1.00,0,0.18,0
4298,49.07,-27.93,1.00,0,0.18,0
4299,49.09,-28.19,1.00,0,0.18,0
4300,49.12,-28.79,1.00,0,0.18,0
4301,49.15,-29.32,0.00,0,0.00,0
4302,49.18,-29.83,0.00,0,0.00,0
4303,49.21,-30.38,0.00,0,0.00,0
4304,49.24,-30.69,2.00,0,0.35,0
4305,49.27,-31.22,17.00,0,2.99,0
4306,49.31,-31.43,42.00,0,7.39,0
4307,49.34,-30.84,67.00,0,11.79,0
4308,49.37,-29.70,87.00,0,15.31,0
4309,49.39,-27.96,103.00,0,18.13,0
4310,49.42,-26.12,115.00,0,20.24,0
4311,49.44,-23.86,124.00,0,21.82,0
4312,49.47,-21.55,132.00,0,23.23,0
4313,49.48,-18.70,139.00,0,24.46,0
4314,49.50,-15.90,144.00,0,25.34,0
4315,49.51,-13.23,149.00,0,26.22,0
4316,49.52,-9.85,152.00,0,26.75,0
4317,49.53,-7.07,155.00,0,27.28,0
4318,49.53,-3.93,158.00,0,27.81,0
4319,49.54,-0.83,160.00,0,28.16,0
4320,49.53,2.20,162.00,0,28.51,0
4321,49.53,4.83,164.00,0,28.86,0
4322,49.52,7.14,165.00,0,29.04,0
4323,49.51,9.33,165.00,0,29.04,0
4324,49.50,11.79,166.00,0,29.22,0
4325,49.49,13.60,167.00,0,29.39,0
4326,49.45,17.99,168.00,0,29.74,0
4327,49.41,21.79,169.00,0,29.74,0
4328,49.39,23.65,170.00,0,29.92,0
4329,49.36,25.47,170.00,0,29.92,0
4330,49.33,27.29,170.00,0,29.92,0
4331,49.31,28.97,170.00,0,29.92,0
4332,49.27,30.71,170.00,0,29.92,0
4333,49.24,32.28,170.00,0,29.92,0
4334,49.21,34.06,170.00,0,29.92,0
4335,49.17,35.79,169.00,0,29.74,0
4336,49.13,39.10,170.00,0,29.92,0
4337,49.06,40.72,170.00,0,29.92,0
4338,49.01,42.25,170.00,0,29.92,0
4339,48.97,43.87,171.00,0,30.10,0
4340,48.92,45.25,171.00,0,30.10,0
4341,48.88,46.62,171.00,0,30.10,0
4342,48.83,48.01,130.00,0,22.88,0
4343,48.78,48.96,44.00,0,7.74,0
4344,48.73,46.92,-3.00,0,-0.53,0
4345,48.69,44.34,-2.00,0,-0.35,0
4346,48.65,42.01,-2.00,0,-0.35,0
4347,48.61,39.44,-1.00,0,-0.18,0
4348,48.57,34.59,-1.00,0,-0.18,0
4349,48.54,34.59,-1.00,0,0.18,0
4350,48.47,29.79,3.00,0,0.53,0
4351,48.47,27.47,3.00,0,0.53,0
4352,48.45,27.47,3.00,0,0.35,0
4353,48.40,22.84,3.00,0,0.53,0
4354,48.38,20.41,3.00,0,0.53,0
4355,48.36,18.03,2.00,0,0.35,0
4356,48.34,15.70,2.00,0,0.35,0
4357,48.33,13.44,2.00,0,0.35,0
4358,48.32,11.13,2.00,0,0.35,0
4359,48.31,8.97,2.00,0,0.35,0
4360,48.30,6.69,2.00,0,0.35,0
4361,48.30,4.49,2.00,0,0.35,0
4362,48.30,2.27,2.00,0,0.35,0
