cnt,pos,speed,DTorque,STorque,Force,Dir
1,108.72,-116.84,329.00,0,57.90,-1
2,108.83,-116.90,332.00,0,58.43,-1
3,108.95,-116.75,335.00,0,58.96,-1
4,109.07,-116.38,336.00,0,59.14,-1
5,109.18,-115.85,337.00,0,59.31,-1
6,109.30,-115.64,340.00,0,59.84,-1
7,109.41,-114.97,341.00,0,60.02,-1
8,109.53,-114.31,340.00,0,59.84,-1
9,109.64,-114.31,342.00,0,60.19,-1
10,109.75,-113.69,346.00,0,60.90,-1
11,109.87,-113.21,348.00,0,61.25,-1
12,109.98,-112.26,348.00,0,61.25,-1
13,110.09,-111.89,350.00,0,61.60,-1
14,110.20,-110.60,352.00,0,61.95,-1
15,110.31,-109.93,351.00,0,61.78,-1
16,110.42,-109.19,351.00,0,61.78,-1
17,110.53,-108.43,358.00,0,63.01,-1
18,110.75,-107.42,359.00,0,63.18,-1
19,110.85,-107.02,359.00,0,63.18,-1
20,110.96,-106.65,361.00,0,63.54,-1
21,111.07,-105.76,363.00,0,63.89,-1
22,111.17,-104.85,363.00,0,63.89,-1
23,111.27,-104.46,363.00,0,63.89,-1
24,111.38,-104.40,365.00,0,64.24,-1
25,111.48,-103.82,369.00,0,64.94,-1
26,111.59,-103.24,370.00,0,65.12,-1
27,111.69,-102.42,370.00,0,65.12,-1
28,111.79,-102.04,372.00,0,65.47,-1
29,111.89,-101.41,374.00,0,65.82,-1
30,111.99,-100.31,374.00,0,65.82,-1
31,112.09,-99.50,373.00,0,65.65,-1
32,112.19,-99.02,375.00,0,66.00,-1
33,112.29,-98.42,378.00,0,66.53,-1
34,112.39,-97.41,380.00,0,66.88,-1
35,112.48,-96.54,381.00,0,67.06,-1
36,112.58,-95.57,381.00,0,67.06,-1
37,112.67,-94.90,383.00,0,67.41,-1
38,112.77,-93.57,385.00,0,67.76,-1
39,112.86,-92.62,384.00,0,67.58,-1
40,112.95,-91.51,383.00,0,67.41,-1
41,113.04,-90.91,384.00,0,67.58,-1
42,113.13,-90.47,387.00,0,68.11,-1
43,113.22,-89.13,389.00,0,68.46,-1
44,113.31,-88.22,389.00,0,68.46,-1
45,113.40,-87.52,390.00,0,68.64,-1
46,113.48,-86.95,391.00,0,68.82,-1
47,113.57,-86.12,392.00,0,68.99,-1
48,113.66,-84.95,392.00,0,68.99,-1
49,113.74,-83.68,391.00,0,68.82,-1
50,113.82,-83.47,393.00,0,69.17,-1
51,113.91,-83.00,396.00,0,69.70,-1
52,114.07,-81.28,397.00,0,69.87,-1
53,114.15,-80.25,397.00,0,69.87,-1
54,114.23,-79.56,398.00,0,70.05,-1
55,114.23,-78.84,398.00,0,70.05,-1
56,114.31,-78.12,400.00,0,70.40,-1
57,114.39,-76.98,401.00,0,70.58,-1
58,114.54,-75.79,400.00,0,70.40,-1
59,114.61,-74.85,399.00,0,70.22,-1
60,114.69,-74.28,399.00,0,70.22,-1
61,114.76,-73.69,401.00,0,70.58,-1
62,114.83,-72.86,403.00,0,70.93,-1
63,114.91,-71.55,404.00,0,71.10,-1
64,114.98,-70.44,404.00,0,71.10,-1
65,115.05,-69.21,404.00,0,71.10,-1
66,115.11,-68.47,405.00,0,71.28,-1
67,115.18,-67.81,405.00,0,71.28,-1
68,115.25,-66.90,406.00,0,71.46,-1
69,115.31,-65.42,407.00,0,71.63,-1
70,115.38,-64.28,406.00,0,71.28,-1
71,115.44,-63.32,406.00,0,71.46,-1
72,115.50,-62.70,406.00,0,71.46,-1
73,115.57,-62.32,406.00,0,71.81,-1
74,115.63,-61.87,408.00,0,71.98,-1
75,115.69,-60.21,410.00,0,72.16,-1
76,115.75,-58.89,411.00,0,72.34,-1
77,115.81,-58.32,411.00,0,72.34,-1
78,115.87,-57.81,411.00,0,72.34,-1
79,115.98,-57.18,411.00,0,72.34,-1
80,116.04,-56.94,412.00,0,72.51,-1
81,116.10,-56.26,413.00,0,72.69,-1
82,116.15,-55.32,414.00,0,72.86,-1
83,116.21,-54.39,414.00,0,72.69,-1
84,116.26,-53.70,413.00,0,72.69,-1
85,116.31,-53.35,413.00,0,72.69,-1
86,116.37,-53.13,414.00,0,72.86,-1
87,116.47,-52.98,415.00,0,73.04,-1
88,116.52,-52.42,417.00,0,73.39,-1
89,116.58,-51.68,418.00,0,73.57,-1
90,116.63,-50.84,419.00,0,73.74,-1
91,116.68,-50.03,419.00,0,73.74,-1
92,116.73,-49.44,419.00,0,73.74,-1
93,116.77,-48.95,419.00,0,73.74,-1
94,116.82,-48.67,420.00,0,73.92,-1
95,116.87,-48.31,420.00,0,73.92,-1
96,116.92,-47.67,420.00,0,73.92,-1
97,116.97,-46.74,421.00,0,74.10,-1
98,117.01,-45.92,421.00,0,74.10,-1
99,117.06,-44.92,421.00,0,74.10,-1
100,117.10,-44.28,421.00,0,74.10,-1
101,117.15,-43.91,420.00,0,73.92,-1
102,117.19,-43.50,420.00,0,73.92,-1
103,117.23,-43.42,421.00,0,74.10,-1
104,117.28,-43.44,421.00,0,74.27,-1
105,117.32,-43.25,422.00,0,74.27,-1
106,117.36,-42.67,424.00,0,74.62,-1
107,117.40,-41.43,425.00,0,74.80,-1
108,117.49,-40.26,425.00,0,74.80,-1
109,117.52,-39.56,425.00,0,74.80,-1
110,117.56,-38.98,425.00,0,74.80,-1
111,117.60,-38.44,426.00,0,74.98,-1
112,117.64,-38.33,425.00,0,74.80,-1
113,117.68,-37.88,425.00,0,74.80,-1
114,117.72,-37.84,426.00,0,74.98,-1
115,117.75,-37.12,426.00,0,74.98,-1
116,117.79,-36.86,426.00,0,74.98,-1
117,117.83,-35.90,426.00,0,74.98,-1
118,117.86,-35.20,426.00,0,74.98,-1
119,117.90,-34.42,426.00,0,74.98,-1
120,117.93,-33.73,426.00,0,74.98,-1
121,117.96,-33.52,425.00,0,74.80,-1
122,118.00,-33.37,425.00,0,74.80,-1
123,118.03,-33.50,425.00,0,74.98,-1
124,118.06,-33.87,426.00,0,74.98,-1
125,118.13,-34.54,427.00,0,75.15,-1
126,118.17,-34.87,428.00,0,75.33,-1
127,118.20,-34.62,429.00,0,75.50,-1
128,118.24,-34.74,430.00,0,75.68,-1
129,118.27,-34.31,430.00,0,75.68,-1
130,118.30,-33.90,431.00,0,75.86,-1
131,118.34,-33.57,431.00,0,75.86,-1
132,118.37,-33.21,431.00,0,75.86,-1
133,118.40,-33.10,431.00,0,75.86,-1
134,118.44,-33.29,432.00,0,76.03,-1
135,118.47,-33.54,432.00,0,76.03,-1
136,118.50,-33.90,432.00,0,76.03,-1
137,118.54,-34.01,433.00,0,76.21,-1
138,118.57,-34.06,433.00,0,76.21,-1
139,118.61,-34.04,433.00,0,76.21,-1
140,118.64,-34.04,434.00,0,76.38,-1
141,118.71,-33.29,434.00,0,76.38,-1
142,118.74,-32.93,434.00,0,76.38,-1
143,118.77,-32.56,434.00,0,76.38,-1
144,118.81,-32.72,434.00,0,76.38,-1
145,118.84,-33.02,434.00,0,76.38,-1
146,118.87,-33.25,434.00,0,76.38,-1
147,118.91,-33.97,434.00,0,76.38,-1
148,118.94,-34.72,435.00,0,76.56,-1
149,118.98,-35.25,435.00,0,76.56,-1
150,119.01,-36.07,437.00,0,76.91,-1
151,119.05,-36.19,438.00,0,77.09,-1
152,119.09,-36.70,438.00,0,77.09,-1
153,119.12,-36.51,439.00,0,77.26,-1
154,119.16,-36.44,440.00,0,77.44,-1
155,119.19,-36.26,440.00,0,77.44,-1
156,119.23,-36.34,440.00,0,77.44,-1
157,119.27,-36.49,440.00,0,77.62,-1
158,119.34,-37.11,441.00,0,77.62,-1
159,119.34,-37.38,441.00,0,77.62,-1
160,119.42,-37.79,441.00,0,77.62,-1
161,119.42,-37.80,442.00,0,77.79,-1
162,119.49,-37.62,442.00,0,77.79,-1
163,119.53,-37.25,443.00,0,77.97,-1
164,119.57,-36.78,442.00,0,77.79,-1
165,119.60,-36.13,442.00,0,77.79,-1
166,119.64,-36.02,441.00,0,77.62,-1
167,119.67,-35.61,441.00,0,77.62,-1
168,119.71,-36.12,441.00,0,77.62,-1
169,119.75,-36.22,441.00,0,77.62,-1
170,119.78,-36.88,441.00,0,77.62,-1
171,119.82,-37.32,441.00,0,77.62,-1
172,119.86,-37.90,442.00,0,77.79,-1
173,119.90,-38.05,443.00,0,77.97,-1
174,119.93,-38.37,444.00,0,78.14,-1
175,119.97,-37.94,444.00,0,78.14,-1
176,120.01,-38.00,445.00,0,78.32,-1
177,120.05,-37.39,444.00,0,78.14,-1
178,120.09,-37.64,444.00,0,78.14,-1
179,120.12,-37.41,444.00,0,78.14,-1
180,120.16,-37.89,444.00,0,78.14,-1
181,120.20,-37.85,444.00,0,78.14,-1
182,120.24,-38.45,444.00,0,78.14,-1
183,120.28,-38.46,444.00,0,78.14,-1
184,120.31,-38.56,444.00,0,78.14,-1
185,120.35,-38.23,444.00,0,78.14,-1
186,120.39,-37.74,444.00,0,78.14,-1
187,120.43,-37.16,444.00,0,78.14,-1
188,120.46,-36.62,443.00,0,77.97,-1
189,120.50,-36.28,443.00,0,77.97,-1
190,120.54,-36.28,442.00,0,77.79,-1
191,120.57,-36.37,441.00,0,77.62,-1
192,120.61,-36.99,441.00,0,77.62,-1
193,120.65,-37.30,441.00,0,77.62,-1
194,120.69,-38.27,441.00,0,77.62,-1
195,120.72,-38.59,442.00,0,77.79,-1
196,120.76,-39.04,442.00,0,77.79,-1
197,120.80,-39.16,443.00,0,77.97,-1
198,120.84,-39.18,443.00,0,77.97,-1
199,120.88,-39.20,443.00,0,77.97,-1
200,120.92,-39.18,443.00,0,77.97,-1
201,120.96,-39.76,443.00,0,77.97,-1
202,121.00,-39.86,443.00,0,77.97,-1
203,121.04,-40.57,443.00,0,77.97,-1
204,121.08,-41.22,443.00,0,77.97,-1
205,121.12,-41.66,443.00,0,77.97,-1
206,121.16,-42.04,443.00,0,77.97,-1
207,121.21,-42.11,443.00,0,78.14,-1
208,121.25,-41.67,444.00,0,77.97,-1
209,121.29,-41.20,443.00,0,77.97,-1
210,121.33,-41.02,442.00,0,77.79,-1
211,121.41,-41.36,441.00,0,77.62,-1
212,121.46,-41.87,441.00,0,77.62,-1
213,121.50,-42.34,441.00,0,77.62,-1
214,121.54,-42.96,441.00,0,77.62,-1
215,121.58,-43.64,442.00,0,77.79,-1
216,121.63,-43.81,442.00,0,77.79,-1
217,121.67,-43.84,443.00,0,77.97,-1
218,121.72,-43.70,443.00,0,77.97,-1
219,121.76,-43.81,443.00,0,77.97,-1
220,121.80,-43.79,442.00,0,77.79,-1
221,121.85,-44.05,442.00,0,77.79,-1
222,121.94,-45.04,442.00,0,77.79,-1
223,121.94,-45.43,441.00,0,77.62,-1
224,122.03,-45.43,442.00,0,77.79,-1
225,122.07,-45.24,442.00,0,77.79,-1
226,122.12,-44.80,441.00,0,77.62,-1
227,122.16,-44.34,440.00,0,77.44,-1
228,122.21,-44.04,439.00,0,77.26,-1
229,122.25,-43.60,438.00,0,77.09,-1
230,122.29,-43.74,438.00,0,76.91,-1
231,122.34,-44.20,437.00,0,76.91,-1
232,122.38,-44.04,437.00,0,76.91,-1
233,122.43,-43.91,437.00,0,76.91,-1
234,122.51,-43.42,438.00,0,77.09,-1
235,122.56,-43.01,437.00,0,76.91,-1
236,122.60,-42.14,437.00,0,76.91,-1
237,122.64,-41.75,436.00,0,76.74,-1
238,122.68,-41.69,435.00,0,76.56,-1
239,122.72,-41.53,434.00,0,76.38,-1
240,122.76,-41.53,433.00,0,76.21,-1
241,122.81,-41.91,433.00,0,76.21,-1
242,122.85,-41.80,432.00,0,76.03,-1
243,122.89,-41.66,432.00,0,76.03,-1
244,122.93,-41.39,432.00,0,76.03,-1
245,122.97,-40.78,431.00,0,75.86,-1
246,123.01,-40.16,428.00,0,75.33,-1
247,123.05,-40.16,427.00,0,75.15,-1
248,123.09,-39.96,426.00,0,74.98,-1
249,123.17,-40.71,426.00,0,74.98,-1
250,123.21,-41.08,425.00,0,74.80,-1
251,123.26,-41.63,425.00,0,74.80,-1
252,123.30,-41.78,425.00,0,74.80,-1
253,123.34,-41.78,425.00,0,74.80,-1
254,123.38,-41.67,425.00,0,74.80,-1
255,123.42,-41.51,425.00,0,74.80,-1
256,123.46,-41.33,424.00,0,74.62,-1
257,123.51,-41.55,424.00,0,74.62,-1
258,123.55,-41.84,423.00,0,74.45,-1
259,123.59,-42.36,423.00,0,74.45,-1
260,123.63,-43.07,422.00,0,74.27,-1
261,123.68,-43.86,422.00,0,74.27,-1
262,123.72,-44.59,422.00,0,74.27,-1
263,123.81,-44.64,421.00,0,74.10,-1
264,123.85,-44.94,421.00,0,74.10,-1
265,123.90,-45.27,420.00,0,73.92,-1
266,123.95,-45.63,419.00,0,73.74,-1
267,123.99,-46.55,418.00,0,73.57,-1
268,124.04,-47.48,418.00,0,73.57,-1
269,124.09,-48.46,418.00,0,73.57,-1
270,124.14,-49.93,420.00,0,73.92,-1
271,124.19,-50.30,420.00,0,73.92,-1
272,124.29,-50.49,420.00,0,73.92,-1
273,124.34,-50.75,419.00,0,73.74,-1
274,124.39,-51.26,419.00,0,73.74,-1
275,124.44,-51.97,419.00,0,73.74,-1
276,124.50,-52.86,419.00,0,73.74,-1
277,124.55,-53.65,419.00,0,73.74,-1
278,124.60,-53.93,419.00,0,73.74,-1
279,124.66,-54.23,419.00,0,73.74,-1
280,124.71,-54.65,418.00,0,73.57,-1
281,124.77,-54.92,417.00,0,73.39,-1
282,124.82,-55.76,416.00,0,73.22,-1
283,124.88,-56.47,416.00,0,73.22,-1
284,124.94,-57.46,417.00,0,73.39,-1
285,124.99,-58.47,417.00,0,73.57,-1
286,125.11,-58.91,418.00,0,73.57,-1
287,125.11,-59.06,418.00,0,73.57,-1
288,125.17,-59.06,417.00,0,73.39,-1
289,125.23,-59.06,417.00,0,73.39,-1
290,125.35,-60.27,416.00,0,73.22,-1
291,125.41,-60.86,416.00,0,73.22,-1
292,125.47,-61.23,417.00,0,73.39,-1
293,125.53,-61.05,416.00,0,73.22,-1
294,125.60,-61.45,415.00,0,73.04,-1
295,125.66,-61.72,414.00,0,72.86,-1
296,125.72,-62.93,413.00,0,72.86,-1
297,125.78,-63.73,414.00,0,72.86,-1
298,125.85,-64.80,414.00,0,72.86,-1
299,125.91,-65.35,415.00,0,73.22,-1
300,125.98,-65.54,416.00,0,73.22,-1
301,126.05,-66.15,415.00,0,73.04,-1
302,126.11,-66.36,415.00,0,73.04,-1
303,126.25,-68.07,415.00,0,73.04,-1
304,126.32,-68.51,416.00,0,73.22,-1
305,126.38,-68.54,416.00,0,73.22,-1
306,126.38,-68.82,414.00,0,72.86,-1
307,126.45,-69.57,413.00,0,72.69,-1
308,126.52,-70.71,412.00,0,72.51,-1
309,126.66,-71.51,413.00,0,72.69,-1
310,126.74,-72.37,415.00,0,73.04,-1
311,126.81,-72.87,415.00,0,73.04,-1
312,126.88,-73.02,415.00,0,73.04,-1
313,126.96,-73.43,414.00,0,72.86,-1
314,127.03,-74.05,414.00,0,72.86,-1
315,127.10,-74.53,415.00,0,73.04,-1
316,127.18,-74.69,415.00,0,73.04,-1
317,127.25,-74.46,412.00,0,72.51,-1
318,127.33,-74.46,411.00,0,72.34,-1
319,127.48,-75.44,411.00,0,72.34,-1
320,127.48,-76.01,412.00,0,72.51,-1
321,127.63,-75.99,413.00,0,72.69,-1
322,127.71,-75.98,413.00,0,72.69,-1
323,127.78,-75.79,412.00,0,72.51,-1
324,127.86,-75.95,411.00,0,72.34,-1
325,127.93,-76.10,411.00,0,72.34,-1
326,128.01,-76.14,411.00,0,72.34,-1
327,128.09,-75.58,411.00,0,72.34,-1
328,128.16,-75.10,409.00,0,71.98,-1
329,128.24,-75.17,407.00,0,71.63,-1
330,128.31,-75.46,406.00,0,71.46,-1
331,128.39,-75.99,406.00,0,71.46,-1
332,128.46,-76.04,407.00,0,71.63,-1
333,128.54,-75.96,408.00,0,71.81,-1
334,128.62,-75.93,406.00,0,71.46,-1
335,128.69,-76.33,406.00,0,71.28,-1
336,128.77,-76.56,405.00,0,71.28,-1
337,128.85,-76.89,405.00,0,71.28,-1
338,128.92,-76.70,403.00,0,70.93,-1
339,129.08,-76.77,401.00,0,70.58,-1
340,129.08,-77.27,400.00,0,70.40,-1
341,129.23,-77.99,401.00,0,70.58,-1
342,129.31,-78.34,402.00,0,70.75,-1
343,129.39,-78.36,402.00,0,70.75,-1
344,129.47,-78.43,401.00,0,70.58,-1
345,129.55,-78.88,400.00,0,70.40,-1
346,129.62,-79.39,399.00,0,70.22,-1
347,129.70,-79.58,399.00,0,70.22,-1
348,129.78,-79.48,399.00,0,70.22,-1
349,129.86,-79.11,397.00,0,69.87,-1
350,129.94,-79.25,395.00,0,69.52,-1
351,130.02,-79.81,394.00,0,69.34,-1
352,130.10,-80.19,395.00,0,69.70,-1
353,130.18,-79.89,396.00,0,69.70,-1
354,130.26,-80.02,395.00,0,69.52,-1
355,130.34,-80.36,394.00,0,69.34,-1
356,130.50,-80.75,393.00,0,69.17,-1
357,130.58,-80.55,393.00,0,69.17,-1
358,130.66,-80.29,392.00,0,68.99,-1
359,130.74,-80.35,390.00,0,68.64,-1
360,130.83,-80.63,388.00,0,68.29,-1
361,130.91,-81.25,388.00,0,68.29,-1
362,130.99,-81.42,390.00,0,68.64,-1
363,131.07,-81.65,390.00,0,68.64,-1
364,131.15,-81.66,389.00,0,68.46,-1
365,131.23,-81.88,388.00,0,68.29,-1
366,131.32,-82.45,388.00,0,68.29,-1
367,131.40,-83.10,388.00,0,68.29,-1
368,131.48,-83.26,386.00,0,67.94,-1
369,131.65,-83.75,384.00,0,67.58,-1
370,131.73,-84.41,383.00,0,67.41,-1
371,131.82,-85.08,385.00,0,67.76,-1
372,131.90,-85.38,386.00,0,67.94,-1
373,131.99,-85.27,385.00,0,67.76,-1
374,132.07,-85.89,384.00,0,67.58,-1
375,132.16,-86.13,384.00,0,67.58,-1
376,132.25,-86.88,384.00,0,67.58,-1
377,132.33,-86.82,382.00,0,67.23,-1
378,132.42,-87.26,380.00,0,66.88,-1
379,132.51,-88.13,379.00,0,66.70,-1
380,132.69,-88.40,381.00,0,67.06,-1
381,132.77,-88.68,382.00,0,67.23,-1
382,132.86,-88.40,381.00,0,67.06,-1
383,132.95,-88.77,380.00,0,66.88,-1
384,133.04,-89.23,380.00,0,66.88,-1
385,133.13,-89.38,380.00,0,66.88,-1
386,133.22,-89.41,379.00,0,66.70,-1
387,133.31,-89.50,375.00,0,66.00,-1
388,133.40,-90.30,376.00,0,66.18,-1
389,133.49,-90.99,377.00,0,66.35,-1
390,133.58,-91.91,377.00,0,66.35,-1
391,133.67,-91.91,376.00,0,66.18,-1
392,133.77,-92.03,375.00,0,66.00,-1
393,133.95,-93.42,376.00,0,66.18,-1
394,134.05,-93.99,376.00,0,66.18,-1
395,134.14,-94.23,374.00,0,65.82,-1
396,134.24,-95.30,372.00,0,65.47,-1
397,134.33,-96.46,372.00,0,65.47,-1
398,134.43,-97.57,374.00,0,65.82,-1
399,134.53,-98.16,374.00,0,65.82,-1
400,134.63,-98.87,374.00,0,65.82,-1
401,134.73,-99.78,373.00,0,65.65,-1
402,134.83,-100.56,374.00,0,65.82,-1
403,134.93,-100.91,374.00,0,65.82,-1
404,135.03,-101.61,371.00,0,65.30,-1
405,135.13,-102.90,370.00,0,65.12,-1
406,135.24,-103.98,373.00,0,65.82,-1
407,135.34,-104.70,374.00,0,65.82,-1
408,135.45,-105.97,373.00,0,65.65,-1
409,135.55,-106.90,374.00,0,65.82,-1
410,135.77,-107.36,374.00,0,65.82,-1
411,135.87,-107.50,372.00,0,65.47,-1
412,135.98,-108.94,371.00,0,65.30,-1
413,136.09,-110.04,373.00,0,65.65,-1
414,136.20,-110.88,374.00,0,65.82,-1
415,136.32,-111.79,374.00,0,65.82,-1
416,136.43,-112.65,374.00,0,65.82,-1
417,136.54,-113.64,375.00,0,66.00,-1
418,136.66,-114.44,374.00,0,65.82,-1
419,136.77,-115.23,372.00,0,65.47,-1
420,136.89,-116.75,373.00,0,65.65,-1
421,137.01,-117.72,376.00,0,66.18,-1
422,137.12,-118.67,376.00,0,66.18,-1
423,137.24,-119.65,376.00,0,66.18,-1
424,137.36,-120.85,377.00,0,66.35,-1
425,137.49,-121.49,377.00,0,66.35,-1
426,137.61,-122.05,375.00,0,66.00,-1
427,137.73,-123.18,375.00,0,66.00,-1
428,137.86,-124.19,378.00,0,66.53,-1
429,137.98,-124.87,378.00,0,66.53,-1
430,138.11,-125.78,378.00,0,66.53,-1
431,138.23,-126.73,379.00,0,66.70,-1
432,138.49,-127.89,377.00,0,66.35,-1
433,138.62,-128.91,378.00,0,66.53,-1
434,138.75,-130.14,380.00,0,66.88,-1
435,138.88,-130.85,380.00,0,66.88,-1
436,139.01,-131.97,381.00,0,67.06,-1
437,139.14,-132.97,382.00,0,67.23,-1
438,139.28,-133.91,380.00,0,66.88,-1
439,139.41,-135.06,379.00,0,66.70,-1
440,139.55,-136.32,382.00,0,67.23,-1
441,139.69,-137.00,383.00,0,67.41,-1
442,139.82,-138.11,383.00,0,67.41,-1
443,139.96,-139.16,384.00,0,67.58,-1
444,140.10,-139.99,382.00,0,67.23,-1
445,140.39,-141.82,384.00,0,67.58,-1
446,140.39,-141.82,385.00,0,67.76,-1
447,140.53,-142.61,385.00,0,67.76,-1
448,140.67,-143.10,386.00,0,67.94,-1
449,140.81,-144.51,384.00,0,67.58,-1
450,141.11,-145.68,383.00,0,67.41,-1
451,141.25,-146.56,386.00,0,67.94,-1
452,141.40,-147.17,388.00,0,68.29,-1
453,141.55,-148.14,388.00,0,68.29,-1
454,141.70,-149.15,389.00,0,68.46,-1
455,141.85,-149.84,387.00,0,68.11,-1
456,142.00,-151.18,387.00,0,68.11,-1
457,142.15,-152.21,390.00,0,68.64,-1
458,142.30,-153.09,391.00,0,68.82,-1
459,142.46,-154.02,392.00,0,68.99,-1
460,142.61,-154.73,392.00,0,68.99,-1
461,142.77,-155.76,390.00,0,68.64,-1
462,142.92,-156.68,393.00,0,69.17,-1
463,143.08,-157.54,394.00,0,69.34,-1
464,143.24,-158.26,394.00,0,69.34,-1
465,143.40,-158.74,396.00,0,69.70,-1
466,143.56,-159.15,394.00,0,69.52,-1
467,143.72,-160.82,397.00,0,69.87,-1
468,144.04,-161.81,398.00,0,70.05,-1
469,144.20,-162.38,399.00,0,70.22,-1
470,144.37,-163.22,397.00,0,69.87,-1
471,144.53,-163.79,396.00,0,69.70,-1
472,144.69,-165.07,399.00,0,70.22,-1
473,144.86,-165.93,400.00,0,70.40,-1
474,145.03,-166.72,401.00,0,70.58,-1
475,145.19,-167.36,400.00,0,70.40,-1
476,145.36,-168.20,399.00,0,70.22,-1
477,145.53,-168.95,402.00,0,70.75,-1
478,145.70,-170.37,403.00,0,70.93,-1
479,145.87,-170.85,403.00,0,70.93,-1
480,146.04,-171.42,402.00,0,70.75,-1
481,146.21,-171.42,404.00,0,71.10,-1
482,146.39,-172.37,405.00,0,71.28,-1
483,146.73,-173.87,407.00,0,71.63,-1
484,146.91,-174.44,406.00,0,71.46,-1
485,146.91,-175.35,405.00,0,71.28,-1
486,147.26,-176.11,408.00,0,71.81,-1
487,147.44,-176.88,409.00,0,71.98,-1
488,147.61,-177.74,410.00,0,72.16,-1
489,147.79,-178.07,409.00,0,71.98,-1
490,147.97,-178.86,409.00,0,71.98,-1
491,148.15,-179.30,411.00,0,72.34,-1
492,148.33,-179.65,412.00,0,72.51,-1
493,148.51,-179.85,413.00,0,72.51,-1
494,148.69,-180.04,412.00,0,72.69,-1
495,148.87,-180.89,414.00,0,72.86,-1
496,149.05,-181.44,415.00,0,73.04,-1
497,149.23,-181.44,415.00,0,73.22,-1
498,149.60,-182.57,414.00,0,72.86,-1
499,149.60,-183.21,416.00,0,73.22,-1
500,149.96,-183.47,417.00,0,73.39,-1
501,150.15,-184.20,418.00,0,73.57,-1
502,150.33,-184.11,417.00,0,73.39,-1
503,150.52,-184.81,416.00,0,73.22,-1
504,150.70,-185.05,418.00,0,73.57,-1
505,150.89,-185.11,419.00,0,73.74,-1
506,151.07,-185.28,419.00,0,73.74,-1
507,151.26,-184.87,418.00,0,73.57,-1
508,151.44,-185.64,419.00,0,73.74,-1
509,151.63,-185.55,420.00,0,73.92,-1
510,151.81,-185.91,421.00,0,74.10,-1
511,152.00,-185.76,420.00,0,73.92,-1
512,152.19,-186.24,420.00,0,73.92,-1
513,152.37,-186.74,421.00,0,74.10,-1
514,152.56,-186.80,422.00,0,74.27,-1
515,152.75,-187.00,423.00,0,74.45,-1
516,152.93,-186.87,421.00,0,74.10,-1
517,153.12,-187.27,424.00,0,74.62,-1
518,153.31,-187.25,424.00,0,74.62,-1
519,153.68,-187.19,424.00,0,74.62,-1
520,153.87,-187.10,422.00,0,74.27,-1
521,154.06,-187.33,424.00,0,74.62,-1
522,154.24,-187.15,425.00,0,74.80,-1
523,154.43,-187.68,426.00,0,74.98,-1
524,154.62,-187.33,424.00,0,74.62,-1
525,154.81,-187.93,424.00,0,74.62,-1
526,155.00,-187.69,426.00,0,74.98,-1
527,155.18,-188.29,426.00,0,74.98,-1
528,155.37,-187.92,426.00,0,74.98,-1
529,155.56,-188.14,424.00,0,74.62,-1
530,155.75,-187.96,425.00,0,74.80,-1
531,155.94,-187.89,426.00,0,74.98,-1
532,156.12,-187.92,427.00,0,75.15,-1
533,156.31,-187.61,425.00,0,74.80,-1
534,156.69,-187.56,427.00,0,75.15,-1
535,156.87,-187.79,427.00,0,75.15,-1
536,157.06,-187.88,427.00,0,75.15,-1
537,157.25,-188.16,426.00,0,74.98,-1
538,157.44,-188.38,427.00,0,75.15,-1
539,157.63,-188.72,428.00,0,75.33,-1
540,157.82,-188.67,429.00,0,75.50,-1
541,158.00,-188.91,428.00,0,75.33,-1
542,158.19,-189.13,428.00,0,75.33,-1
543,158.38,-189.12,430.00,0,75.68,-1
544,158.57,-189.18,430.00,0,75.68,-1
545,158.76,-189.00,430.00,0,75.68,-1
546,158.95,-189.00,429.00,0,75.50,-1
547,159.14,-189.26,430.00,0,75.86,-1
548,159.33,-189.16,431.00,0,75.86,-1
549,159.52,-189.54,431.00,0,75.86,-1
550,159.71,-189.38,430.00,0,75.68,-1
551,159.90,-190.20,430.00,0,75.68,-1
552,160.28,-190.65,432.00,0,76.03,-1
