cnt,pos,speed,DTorque,DAC,STorque,Force
1,174.046,-2.9682,0,0,-9.4,0
2,174.107,-3.5893,0,0,-8.1,0
3,174.13,-3.8825,0,0,-8.1,0
4,174.149,-4.1495,0,0,-8.1,0
5,174.162,-4.2437,0,0,-8.1,0
6,174.18,-4.5584,0,0,-7.3,0
7,174.193,-4.6645,0,0,-7.3,0
8,174.208,-4.8624,0,0,-7.3,0
9,174.227,-4.9685,0,0,-7.3,0
10,174.237,-5.1306,0,0,-7.3,0
11,174.247,-5.2379,0,0,-7.3,0
12,174.263,-5.3154,0,0,-7.3,0
13,174.29,-5.5729,0,0,-6.7,0
14,174.307,-5.8065,0,0,-6.7,0
15,174.331,-6.0354,0,0,-6.7,0
16,174.343,-6.1713,0,0,-6.7,0
17,174.362,-6.2511,0,0,-6.7,0
18,174.387,-6.4645,0,0,-6.7,0
19,174.42,-6.6469,0,0,-6.7,0
20,174.434,-6.722,0,0,-6.7,0
21,174.461,-6.8984,0,0,-6.7,0
22,174.475,-7.0963,0,0,-6.7,0
23,174.504,-7.2799,0,0,-6.7,0
24,174.518,-7.4241,0,0,-6.7,0
25,174.541,-7.6649,0,0,-6.7,0
26,174.556,-7.7257,0,0,-6.7,0
27,174.58,-7.7674,0,0,-6.7,0
28,174.603,-7.9105,0,0,-6.7,0
29,174.627,-8.05,0,0,-6.7,0
30,174.651,-8.1096,0,0,-6.7,0
31,174.668,-8.224,0,0,-6.7,0
32,174.693,-8.3873,0,0,-6.7,0
33,174.718,-8.4266,0,0,-6.7,0
34,174.735,-8.4564,0,0,-6.7,0
35,174.76,-8.5554,0,0,-6.7,0
36,174.795,-8.5864,0,0,-6.7,0
37,174.812,-8.7127,0,0,-6.7,0
38,174.83,-8.8093,0,0,-6.7,0
39,174.874,-8.9452,0,0,-6.7,0
40,174.901,-8.9929,0,0,-6.7,0
41,174.928,-9.0096,0,0,-6.7,0
42,174.955,-9.1097,0,0,-6.7,0
43,174.973,-9.186,0,0,-6.7,0
44,175.001,-9.2957,0,0,-6.7,0
45,175.02,-9.3719,0,0,-6.7,0
46,175.067,-9.478,0,0,-6.7,0
47,175.095,-9.5138,0,0,-6.7,0
48,175.133,-9.5782,0,0,-6.7,0
49,175.153,-9.6402,0,0,-6.7,0
50,175.172,-9.7212,0,0,-6.7,0
51,175.201,-9.8142,0,0,-6.7,0
52,175.25,-9.8988,0,0,-6.8,0
53,175.27,-9.9501,0,0,-6.8,0
54,175.3,-10.0168,0,0,-6.8,0
55,175.32,-10.0884,0,0,-6.8,0
56,175.351,-10.2922,0,0,-6.8,0
57,175.382,-10.3828,0,0,-6.8,0
58,175.413,-10.4221,0,0,-6.8,0
59,175.445,-10.4841,0,0,-6.8,0
60,175.476,-10.5795,-1,0,-6.8,0
61,175.498,-10.6558,0,0,-6.8,0
62,175.519,-10.7392,0,0,-6.8,0
63,175.584,-10.8274,0,0,-6.8,0
64,175.617,-10.8608,0,0,-6.8,0
65,175.66,-10.9645,0,0,-6.8,0
66,175.693,-11.0456,0,0,-6.8,0
67,175.715,-11.0623,0,0,-6.8,0
68,175.738,-11.0444,0,0,-6.8,0
69,175.782,-11.0933,0,0,-6.8,0
70,175.815,-11.1398,0,0,-6.8,0
71,175.837,-11.1624,0,0,-6.8,0
72,175.86,-11.1982,0,0,-6.8,0
73,175.905,-11.166,0,0,-6.7,0
74,175.938,-11.2625,0,0,-6.7,0
75,175.972,-11.2852,0,0,-6.7,0
76,176.006,-11.3901,0,0,-6.7,0
77,176.029,-11.4127,0,0,-6.7,0
78,176.063,-11.3961,0,0,-6.7,0
79,176.109,-11.4211,0,0,-6.7,0
80,176.144,-11.495,0,0,-6.7,0
81,176.167,-11.5021,0,0,-6.7,0
82,176.19,-11.5975,0,0,-6.7,0
83,176.236,-11.6357,0,0,-6.7,0
84,176.26,-11.6738,0,0,-6.7,0
85,176.295,-11.7179,0,0,-6.7,0
86,176.318,-11.8216,0,0,-6.7,0
87,176.365,-11.9444,0,0,-6.8,0
88,176.389,-11.998,0,0,-6.8,0
89,176.425,-11.9992,0,0,-6.8,0
90,176.474,-12.1828,0,0,-6.8,0
91,176.51,-12.1971,0,0,-6.8,0
92,176.535,-12.3068,0,0,-6.8,0
93,176.559,-12.2937,0,0,-6.8,0
94,176.609,-12.3449,0,0,-6.9,0
95,176.633,-12.3795,0,0,-6.9,0
96,176.671,-12.3962,0,0,-6.9,0
97,176.745,-12.4379,0,0,-6.9,0
98,176.782,-12.4618,0,0,-6.9,0
99,176.832,-12.4761,0,0,-6.9,0
100,176.857,-12.5166,0,0,-6.7,0
101,176.932,-12.4951,0,0,-6.7,0
102,176.957,-12.5237,0,0,-6.7,0
103,177.007,-12.5535,0,0,-6.7,0
104,177.045,-12.6453,0,0,-6.7,0
105,177.096,-12.6239,0,0,-6.6,0
106,177.134,-12.7025,0,0,-6.6,0
107,177.197,-12.8372,0,0,-6.6,0
108,177.236,-12.8122,0,0,-6.6,0
109,177.262,-12.8861,0,0,-6.6,0
110,177.287,-12.9314,0,0,-6.6,0
111,177.353,-13.1829,0,0,-6.7,0
112,177.392,-13.2271,0,0,-6.7,0
113,177.445,-13.2771,0,0,-6.7,0
114,177.485,-13.3761,0,0,-6.7,0
115,177.512,-13.4595,0,0,-6.7,0
116,177.539,-13.5096,0,0,-6.7,0
117,177.606,-13.5334,0,0,-6.8,0
118,177.647,-13.5513,0,0,-6.8,0
119,177.674,-13.5477,0,0,-6.8,0
120,177.701,-13.5775,-1,0,-6.8,0
121,177.755,-13.5537,0,0,-6.8,0
122,177.796,-13.4965,0,0,-6.8,0
123,177.837,-13.5179,0,0,-6.8,0
124,177.864,-13.5346,0,0,-6.8,0
125,177.918,-13.5167,0,0,-6.9,0
126,177.945,-13.4559,0,0,-6.9,0
127,178.012,-13.593,0,0,-6.9,0
128,178.053,-13.655,0,0,-6.9,0
129,178.094,-13.6347,0,0,-6.9,0
130,178.122,-13.7122,0,0,-6.9,0
131,178.163,-13.8386,0,0,-6.9,0
132,178.205,-13.8898,0,0,-6.9,0
133,178.26,-13.9459,0,0,-6.9,0
134,178.288,-13.9804,0,0,-6.9,0
135,178.358,-14.077,0,0,-6.9,0
136,178.387,-14.1437,0,0,-6.9,0
137,178.443,-14.1843,0,0,-6.9,0
138,178.486,-14.3118,0,0,-6.9,0
139,178.529,-14.3631,0,0,-6.9,0
140,178.572,-14.3845,0,0,-6.9,0
141,178.63,-14.4322,0,0,-6.9,0
142,178.658,-14.4394,0,0,-6.9,0
143,178.731,-14.5443,11,37.4991,-7,4
144,178.774,-13.8946,30,38.1926,-7,13
145,178.815,-13.3606,36,38.1926,-7,16
146,178.841,-12.5369,37,38.1926,-7,16
147,178.889,-11.4497,38,39.0216,-7,17
148,178.912,-10.9323,38,39.0216,-7,17
149,178.964,-9.7164,39,39.4689,-7,17
150,178.993,-9.2575,39,39.4689,-7,17
151,179.019,-8.4755,39,40.0136,-7,17
152,179.036,-8.0941,40,40.0136,-7,18
153,179.067,-7.2096,40,40.4774,-7,18
154,179.088,-6.5706,40,40.4774,-7,18
155,179.113,-5.6372,40,40.8086,-7,18
156,179.129,-5.1616,40,40.8086,-7.2,18
157,179.139,-4.5107,40,41.0741,-7.2,18
158,179.152,-4.0494,40,41.0741,-7.2,18
159,179.169,-2.8609,41,41.3256,-7.2,18
160,179.174,-2.2315,41,41.3256,-7.2,18
161,179.18,-1.8262,41,41.4386,-7.2,18
162,179.185,-0.7367,41,41.4386,-8.2,18
163,179.187,-0.3397,41,41.4924,-8.2,18
164,179.186,0.5174,41,41.4924,-8.2,18
165,179.182,0.8178,42,41.4924,-8.2,18
166,179.181,0.8809,41,41.4924,-8.2,18
167,179.176,0.9012,42,41.4924,-8.2,18
168,179.174,0.8809,42,41.4924,-9.3,18
169,179.17,0.8178,42,41.4924,-9.3,18
170,179.169,0.7176,42,41.4924,-9.3,18
171,179.166,0.5638,42,41.4924,-9.3,18
172,179.164,0.4542,42,41.4924,-9.3,18
173,179.162,0.1872,42,41.4924,-9.3,18
174,179.161,0.0584,41,41.4924,-9.3,18
175,179.161,-0.0513,41,41.4924,-9.3,18
176,179.162,-0.0584,41,41.4924,-9.3,18
177,179.162,-0.006,41,41.4924,-9.3,18
178,179.162,0.0238,41,41.4924,-9.3,18
179,179.162,0.0262,41,41.4924,-9.3,18
180,179.162,0.0143,42,41.4924,-9.3,18
181,179.162,-0.0179,41,41.4924,-9.3,18
182,179.162,-0.0155,41,41.4924,-9.3,18
183,179.162,0.0095,41,41.4924,-9.7,18
184,179.162,0.0131,41,41.4924,-9.7,18
185,179.162,0.0095,41,41.4924,-9.7,18
186,179.162,-0.0095,41,41.4924,-9.7,18
187,179.162,-0.0036,41,41.4924,-9.7,18
188,179.162,0.0012,41,41.4924,-9.8,18
189,179.162,0,41,41.4924,-9.8,18
190,179.162,0.0036,41,41.4924,-9.8,18
191,179.162,0.0012,41,41.4924,-9.8,18
192,179.162,-0.0048,41,41.4924,-9.8,18
193,179.162,0.0024,41,41.4924,-9.8,18
194,179.162,0.0036,41,41.4924,-9.7,18
195,179.162,-0.0036,41,41.4924,-9.7,18
196,179.162,-0.0036,41,41.4924,-9.7,18
197,179.162,0,41,41.4924,-9.7,18
198,179.162,0.006,41,41.4924,-9.7,18
199,179.162,0.0072,41,41.4924,-9.7,18
200,179.162,-0.0048,41,41.4924,-9.7,18
201,179.162,-0.0036,41,41.4924,-9.7,18
202,179.162,0,41,41.4924,-9.7,18
203,179.162,0.0048,41,41.4924,-9.7,18
204,179.162,0.0036,41,41.4924,-9.8,18
205,179.162,-0.006,41,41.4924,-9.8,18
206,179.162,-0.0048,41,41.4924,-9.8,18
207,179.162,0.0036,41,41.4924,-9.8,18
208,179.162,0,41,41.4924,-9.8,18
209,179.162,0,41,41.4924,-9.8,18
210,179.162,-0.0048,41,41.4924,-9.8,18
211,179.162,-0.0036,41,41.4924,-9.8,18
212,179.162,0,41,41.4924,-9.8,18
213,179.162,0.0024,41,41.4924,-9.8,18
214,179.162,-0.0012,41,41.4924,-9.8,18
215,179.162,-0.0012,41,41.4924,-9.8,18
216,179.162,0.0036,41,41.4924,-9.8,18
217,179.162,0,41,41.4924,-9.8,18
218,179.162,-0.0024,41,41.4924,-9.8,18
219,179.162,-0.006,41,41.4924,-9.8,18
220,179.162,0.0048,41,41.4924,-9.8,18
221,179.162,0.0012,41,41.4924,-9.8,18
222,179.162,0,41,41.4924,-9.8,18
223,179.162,-0.0036,41,41.4924,-9.8,18
224,179.162,0.006,41,41.4924,-9.8,18
225,179.162,0.0072,41,41.4924,-9.8,18
226,179.162,0.0024,41,41.4924,-9.8,18
227,179.162,-0.0072,41,41.4924,-9.8,18
228,179.162,0,41,41.4924,-9.8,18
229,179.162,-0.0024,41,41.4924,-9.8,18
230,179.162,-0.0036,41,41.4924,-9.8,18
231,179.162,-0.0012,41,41.4924,-9.8,18
232,179.162,0.006,41,41.4924,-9.8,18
233,179.162,0.0036,41,41.4924,-9.8,18
234,179.162,0.0012,41,41.4924,-9.8,18
235,179.162,-0.0012,41,41.4924,-9.8,18
236,179.162,0.0012,41,41.4924,-9.8,18
237,179.162,0.0036,41,41.4924,-9.8,18
238,179.162,0.0012,41,41.4924,-9.8,18
239,179.162,0.0012,41,41.4924,-9.8,18
240,179.162,-0.0048,41,41.4924,-9.8,18
241,179.162,0.0024,41,41.4924,-9.8,18
242,179.162,0.006,41,41.4924,-9.8,18
243,179.162,0.0048,41,41.4924,-9.8,18
244,179.162,-0.0072,41,41.4924,-9.8,18
245,179.162,0,41,41.4924,-9.8,18
246,179.162,0.006,41,41.4924,-9.8,18
247,179.162,0.006,41,41.4924,-9.8,18
248,179.162,-0.0036,41,41.4924,-9.8,18
249,179.162,-0.006,41,41.4924,-9.8,18
250,179.162,0.0036,41,41.4924,-9.8,18
251,179.162,0.0048,41,41.4924,-9.8,18
252,179.162,0.0036,41,41.4924,-9.8,18
253,179.162,-0.0036,41,41.4924,-9.8,18
254,179.162,0.0036,41,41.4924,-9.8,18
255,179.162,0.0024,41,41.4924,-9.8,18
256,179.162,-0.0024,41,41.4924,-9.8,18
257,179.162,-0.0024,41,41.4924,-9.8,18
258,179.162,0.0072,41,41.4924,-9.8,18
259,179.162,0.0048,41,41.4924,-9.8,18
260,179.162,-0.0036,41,41.4924,-9.8,18
261,179.162,-0.0012,41,41.4924,-9.8,18
262,179.162,0.0024,41,41.4924,-9.8,18
263,179.162,0.0012,41,41.4924,-9.8,18
264,179.162,-0.0024,41,41.4924,-9.8,18
265,179.162,-0.0024,41,41.4924,-9.8,18
266,179.162,0.0024,41,41.4924,-9.8,18
267,179.162,0.0024,41,41.4924,-9.8,18
268,179.162,-0.0012,41,41.4924,-9.8,18
269,179.162,0,41,41.4924,-9.8,18
270,179.162,0,41,41.4924,-9.8,18
271,179.162,0.0024,41,41.4924,-9.8,18
272,179.162,-0.0024,41,41.4924,-9.8,18
273,179.162,-0.006,41,41.4924,-9.8,18
274,179.162,0.006,41,41.4924,-9.8,18
275,179.162,0.006,41,41.4924,-9.8,18
276,179.162,0.0083,41,41.4924,-9.8,18
277,179.162,-0.0083,41,41.4924,-9.8,18
278,179.162,-0.0107,41,41.4924,-9.8,18
279,179.162,0.0095,41,41.4924,-9.7,18
280,179.162,0.006,41,41.4924,-9.7,18
281,179.162,0.0024,41,41.4924,-9.7,18
282,179.162,-0.006,41,41.4924,-9.7,18
283,179.162,0,41,41.4924,-9.7,18
284,179.162,0.0072,41,41.4924,-9.7,18
285,179.162,0.0048,41,41.4924,-9.7,18
286,179.162,-0.0024,41,41.4924,-9.7,18
287,179.162,-0.0048,41,41.4924,-9.7,18
288,179.162,0.0024,41,41.4924,-9.7,18
289,179.162,0.0048,41,41.4924,-9.7,18
290,179.162,0,41,41.4924,-9.8,18
291,179.162,-0.0024,41,41.4924,-9.8,18
292,179.162,-0.0072,41,41.4924,-9.8,18
293,179.162,0.0024,41,41.4924,-9.8,18
294,179.162,0.0048,41,41.4924,-9.8,18
295,179.162,-0.0024,41,41.4924,-9.7,18
296,179.162,0.0012,41,41.4924,-9.7,18
297,179.162,-0.0012,41,41.4924,-9.7,18
298,179.162,-0.0012,41,41.4924,-9.7,18
299,179.162,0.0036,41,41.4924,-9.7,18
300,179.162,0.0048,41,41.4924,-9.7,18
301,179.162,-0.0072,41,41.4924,-9.7,18
302,179.162,0.0012,41,41.4924,-9.7,18
303,179.162,0.006,41,41.4924,-9.7,18
304,179.162,0.0024,41,41.4924,-9.7,18
305,179.162,-0.0012,41,41.4924,-9.8,18
306,179.162,0.0036,41,41.4924,-9.8,18
307,179.162,-0.0024,41,41.4924,-9.8,18
308,179.162,-0.0036,41,41.4924,-9.8,18
309,179.162,-0.0024,41,41.4924,-9.8,18
310,179.162,0.0036,41,41.4924,-9.8,18
311,179.162,-0.0024,41,41.4924,-9.8,18
312,179.162,0.0012,41,41.4924,-9.8,18
313,179.162,0.0048,41,41.4924,-9.8,18
314,179.162,0.0012,41,41.4924,-9.8,18
315,179.162,-0.0048,41,41.4924,-9.8,18
316,179.162,-0.0036,41,41.4924,-9.8,18
317,179.162,0.0024,41,41.4924,-9.8,18
318,179.162,0.0012,41,41.4924,-9.8,18
319,179.162,-0.0012,41,41.4924,-9.8,18
320,179.162,-0.0083,41,41.4924,-9.8,18
321,179.162,-0.0024,41,41.4924,-9.8,18
322,179.162,0.0024,41,41.4924,-9.8,18
323,179.162,0.0072,41,41.4924,-9.8,18
324,179.162,-0.0024,41,41.4924,-9.9,18
325,179.162,0.0012,41,41.4924,-9.9,18
326,179.162,0,41,41.4924,-9.9,18
327,179.162,-0.0036,41,41.4924,-9.9,18
328,179.162,0,41,41.4924,-9.9,18
329,179.162,0.0036,41,41.4924,-9.9,18
330,179.162,-0.006,41,41.4924,-9.9,18
331,179.162,-0.0048,41,41.4924,-9.9,18
332,179.162,0.0024,41,41.4924,-9.9,18
333,179.162,-0.0012,41,41.4924,-9.9,18
334,179.162,-0.0024,41,41.4924,-9.9,18
335,179.162,0.0024,41,41.4924,-9.9,18
336,179.162,0.0012,41,41.4924,-9.9,18
337,179.162,0.0036,41,41.4924,-9.9,18
338,179.162,-0.0012,41,41.4924,-9.9,18
339,179.162,-0.0036,41,41.4924,-9.9,18
340,179.162,0.0012,41,41.4924,-9.9,18
341,179.162,0,41,41.4924,-9.9,18
342,179.162,0.0012,41,41.4924,-9.9,18
343,179.162,-0.006,41,41.4924,-9.9,18
344,179.162,-0.0048,41,41.4924,-9.9,18
345,179.162,0,41,41.4924,-9.9,18
346,179.162,0,41,41.4924,-9.9,18
347,179.162,-0.0012,41,41.4924,-9.9,18
348,179.162,-0.0024,41,41.4924,-10,18
349,179.162,-0.0012,41,41.4924,-10,18
350,179.162,-0.0036,41,41.4924,-10,18
351,179.162,-0.0012,41,41.4924,-10,18
352,179.162,0.0048,41,41.4924,-10,18
353,179.162,0.0036,41,41.4924,-10,18
354,179.162,-0.006,41,41.4924,-10,18
355,179.162,-0.0024,41,41.4924,-10,18
356,179.162,0.0048,41,41.4924,-10,18
357,179.162,-0.0012,41,41.4924,-10,18
358,179.162,-0.0072,41,41.4924,-10,18
359,179.162,-0.0048,41,41.4924,-10,18
360,179.162,-0.0024,41,41.4924,-10,18
361,179.162,-0.0012,41,41.4924,-10,18
362,179.162,-0.0012,41,41.4924,-10,18
363,179.162,0.0012,41,41.4924,-10,18
364,179.162,-0.006,41,41.4924,-10,18
365,179.162,-0.0036,41,41.4924,-10,18
366,179.162,-0.0012,41,41.4924,-10,18
367,179.162,-0.0036,41,41.4924,-10,18
368,179.162,0.0012,41,41.4924,-10,18
369,179.162,-0.0024,41,41.4924,-10,18
370,179.162,0.0048,41,41.4924,-10,18
371,179.162,0.0024,41,41.4924,-10,18
372,179.162,-0.0072,41,41.4924,-10,18
373,179.162,-0.0048,41,41.4924,-10,18
374,179.162,-0.0012,41,41.4924,-10.1,18
375,179.162,0,41,41.4924,-10.1,18
376,179.162,0.0048,41,41.4924,-10.1,18
377,179.162,0.0012,41,41.4924,-10.1,18
378,179.162,-0.0095,41,41.4924,-10.1,18
379,179.162,0.006,41,41.4924,-10.1,18
380,179.162,0.0024,41,41.4924,-10.1,18
381,179.162,-0.006,41,41.4924,-10.1,18
382,179.162,-0.0012,41,41.4924,-10.1,18
383,179.162,-0.0036,41,41.4924,-10.1,18
384,179.162,0.0083,41,41.4924,-10.1,18
385,179.162,-0.0012,41,41.4924,-10.1,18
386,179.162,-0.0072,41,41.4924,-10.1,18
387,179.162,0.0048,41,41.4924,-10.1,18
388,179.162,0.006,41,41.4924,-10.1,18
389,179.162,-0.0036,41,41.4924,-10.1,18
390,179.162,-0.0048,41,41.4924,-10.1,18
391,179.162,0.0012,41,41.4924,-10.1,18
392,179.162,0.0036,41,41.4924,-10.1,18
393,179.162,-0.0024,41,41.4924,-10.1,18
394,179.162,0.0048,41,41.4924,-10.1,18
395,179.162,0,41,41.4924,-10.1,18
396,179.162,-0.0036,41,41.4924,-10.1,18
397,179.162,0.0012,41,41.4924,-10.1,18
398,179.162,0,41,41.4924,-10.1,18
399,179.162,-0.0012,41,41.4924,-10.1,18
400,179.162,-0.0012,41,41.4924,-10.1,18
401,179.162,-0.0024,41,41.4924,-10.1,18
402,179.162,0.0036,41,41.4924,-10.1,18
403,179.162,-0.0024,41,41.4924,-10.1,18
404,179.162,-0.0024,41,41.4924,-10.1,18
405,179.162,0.0024,41,41.4924,-10.1,18
406,179.162,-0.0012,41,41.4924,-10.1,18
407,179.162,0.0072,41,41.4924,-10.1,18
408,179.162,-0.0048,41,41.4924,-10.1,18
409,179.162,-0.0012,41,41.4924,-10.1,18
410,179.162,0.0024,41,41.4924,-10.1,18
411,179.162,0.0012,41,41.4924,-10.1,18
412,179.162,0.0012,41,41.4924,-10.1,18
413,179.162,-0.0036,41,41.4924,-10.1,18
414,179.162,-0.0048,41,41.4924,-10.1,18
415,179.162,0,41,41.4924,-10.1,18
416,179.162,-0.006,41,41.4924,-10.1,18
417,179.162,0,41,41.4924,-10.1,18
418,179.162,0,41,41.4924,-10.1,18
419,179.162,0,41,41.4924,-10.1,18
420,179.162,-0.0036,41,41.4924,-10.1,18
421,179.162,0.0012,41,41.4924,-10.1,18
422,179.162,0.0012,41,41.4924,-10.1,18
423,179.162,-0.0024,41,41.4924,-10.1,18
424,179.162,0,41,41.4924,-10.1,18
425,179.162,0,41,41.4924,-10.1,18
426,179.162,0,41,41.4924,-10.1,18
427,179.162,-0.0024,41,41.4924,-10.1,18
428,179.162,-0.0024,41,41.4924,-10.2,18
429,179.162,0,41,41.4924,-10.2,18
430,179.162,-0.0012,41,41.4924,-10.2,18
431,179.162,-0.0012,41,41.4924,-10.2,18
432,179.162,-0.0012,41,41.4924,-10.2,18
433,179.162,0.0012,41,41.4924,-10.2,18
434,179.162,0.0012,41,41.4924,-10.2,18
435,179.162,-0.0024,41,41.4924,-10.2,18
436,179.162,-0.0012,41,41.4924,-10.2,18
437,179.162,0,41,41.4924,-10.2,18
438,179.162,0,41,41.4924,-10.3,18
439,179.162,0.0012,41,41.4924,-10.3,18
440,179.162,-0.0012,41,41.4924,-10.3,18
441,179.162,-0.0024,41,41.4924,-10.3,18
442,179.162,0.0012,41,41.4924,-10.3,18
443,179.162,0.0036,41,41.4924,-10.3,18
444,179.162,-0.006,41,41.4924,-10.3,18
445,179.162,-0.0012,41,41.4924,-10.3,18
446,179.162,0.0048,41,41.4924,-10.3,18
447,179.162,-0.0072,41,41.4924,-10.4,18
448,179.162,0.0012,41,41.4924,-10.4,18
449,179.162,-0.0024,41,41.4924,-10.4,18
450,179.162,-0.0036,41,41.4924,-10.4,18
451,179.162,0.0048,41,41.4924,-10.4,18
452,179.162,-0.0012,41,41.4924,-10.4,18
453,179.162,-0.0072,41,41.4924,-10.4,18
454,179.162,0.0024,41,41.4924,-10.4,18
455,179.162,0.0012,41,41.4924,-10.4,18
456,179.162,-0.0012,41,41.4924,-10.4,18
457,179.162,-0.0012,41,41.4924,-10.4,18
458,179.162,0.0024,41,41.4924,-10.4,18
459,179.162,0.0048,41,41.4924,-10.4,18
460,179.162,0,41,41.4924,-10.4,18
461,179.162,-0.0024,41,41.4924,-10.4,18
462,179.162,0.0048,41,41.4924,-10.4,18
463,179.162,0.0048,41,41.4924,-10.4,18
464,179.162,-0.0012,41,41.4924,-10.4,18
465,179.162,-0.0036,41,41.4924,-10.4,18
466,179.162,0.0012,41,41.4924,-10.4,18
467,179.162,0.0036,41,41.4924,-10.4,18
468,179.162,-0.0024,41,41.4924,-10.4,18
469,179.162,0.0036,41,41.4924,-10.4,18
470,179.162,-0.0036,41,41.4924,-10.4,18
471,179.162,-0.0072,41,41.4924,-10.4,18
472,179.162,0.0083,41,41.4924,-10.3,18
473,179.162,0.0012,41,41.4924,-10.3,18
474,179.162,-0.0036,41,41.4924,-10.3,18
475,179.162,-0.0024,41,41.4924,-10.3,18
476,179.162,0,41,41.4924,-10.3,18
477,179.162,0.0036,41,41.4924,-10.3,18
478,179.162,-0.0012,41,41.4924,-10.3,18
479,179.162,-0.0012,41,41.4924,-10.3,18
480,179.162,0.0024,41,41.4924,-10.3,18
481,179.162,0,41,41.4924,-10.3,18
482,179.162,-0.0072,41,41.4924,-10.3,18
483,179.162,0.0012,41,41.4924,-10.3,18
484,179.162,-0.0012,41,41.4924,-10.3,18
485,179.162,-0.0012,41,41.4924,-10.3,18
486,179.162,0.0012,41,41.4924,-10.3,18
487,179.162,-0.0048,41,41.4924,-10.3,18
488,179.162,-0.0024,41,41.4924,-10.3,18
489,179.162,0,41,41.4924,-10.4,18
490,179.162,0.0036,41,41.4924,-10.4,18
491,179.162,-0.0024,41,41.4924,-10.4,18
492,179.162,-0.0036,41,41.4924,-10.4,18
493,179.162,-0.0036,41,41.4924,-10.4,18
494,179.162,-0.0024,41,41.4924,-10.4,18
495,179.162,0.0012,41,41.4924,-10.4,18
496,179.162,-0.0048,41,41.4924,-10.4,18
497,179.162,-0.0072,41,41.4924,-10.4,18
498,179.162,-0.0012,41,41.4924,-10.5,18
499,179.162,0.0012,41,41.4924,-10.5,18
500,179.162,0,41,41.4924,-10.5,18
501,179.162,-0.0012,41,41.4924,-10.5,18
502,179.162,-0.0036,41,41.4924,-10.5,18
503,179.162,-0.0036,41,41.4924,-10.5,18
504,179.162,-0.0036,41,41.4924,-10.5,18
505,179.162,-0.0048,41,41.4924,-10.5,18
506,179.162,-0.0107,41,41.4924,-10.5,18
507,179.162,-0.0072,41,41.4924,-10.6,18
508,179.162,-0.0072,41,41.4924,-10.6,18
509,179.162,-0.0107,41,41.4924,-10.6,18
510,179.162,-0.0107,41,41.4924,-10.6,18
511,179.162,-0.0179,41,41.4924,-10.7,18
512,179.162,-0.0095,41,41.4924,-10.7,18
513,179.162,-0.0083,41,41.4924,-10.7,18
514,179.162,0.0024,41,41.4924,-10.7,18
515,179.162,-0.0048,41,41.4924,-10.8,18
516,179.163,-0.0048,41,41.4924,-10.8,18
517,179.163,-0.0072,41,41.4924,-10.8,18
518,179.163,-0.0024,41,41.4924,-10.8,18
519,179.163,0.0036,41,41.4924,-10.8,18
520,179.163,-0.0048,41,41.4924,-11,18
521,179.163,-0.0036,41,41.4924,-11,18
522,179.163,-0.0012,41,41.4924,-11,18
523,179.163,-0.006,41,41.4924,-11.3,18
524,179.163,-0.0107,41,41.4924,-11.3,18
525,179.163,-0.0083,41,41.4924,-11.3,18
526,179.163,-0.0048,41,41.4924,-11.3,18
527,179.163,-0.0048,41,41.4924,-11.3,18
528,179.163,-0.0119,41,41.4924,-11.5,18
529,179.163,-0.006,41,41.4924,-11.5,18
530,179.163,-0.0036,41,41.4924,-11.5,18
531,179.163,-0.0107,41,41.4924,-11.5,18
532,179.163,-0.0083,41,41.4924,-11.5,18
533,179.163,-0.006,41,41.4924,-11.5,18
534,179.163,-0.0095,41,41.4924,-11.5,18
535,179.163,-0.0072,41,41.4924,-11.7,18
536,179.163,-0.0036,41,41.4924,-11.7,18
537,179.163,0.0012,41,41.4924,-11.7,18
538,179.163,-0.0036,41,41.4924,-11.7,18
539,179.163,-0.0048,41,41.4924,-11.8,18
540,179.163,-0.0048,41,41.4924,-11.8,18
541,179.163,-0.006,41,41.4924,-11.8,18
542,179.163,-0.006,41,41.4924,-11.8,18
543,179.163,-0.0095,41,41.4924,-12,18
544,179.163,-0.0179,41,41.4924,-12,18
545,179.163,-0.0143,41,41.4924,-12,18
546,179.163,-0.025,41,41.4924,-12,18
547,179.163,-0.0322,41,41.4924,-12.1,18
548,179.164,-0.0465,41,41.4924,-12.1,18
549,179.164,-0.0489,41,41.4924,-12.1,18
